Batch	scan001-blueberry.sre
UV540 113302	None
blue01 Cycle01	08/11/2022 16:13:51PM
nm	A
200.00	4.420
201.00	3.484
202.00	3.666
203.00	3.928
204.00	3.783
205.00	3.674
206.00	4.004
207.00	4.252
208.00	3.796
209.00	3.719
210.00	3.733
211.00	3.745
212.00	3.991
213.00	3.939
214.00	3.971
215.00	3.936
216.00	3.955
217.00	3.939
218.00	3.801
219.00	3.870
220.00	3.866
221.00	3.900
222.00	3.951
223.00	4.000
224.00	3.815
225.00	3.742
226.00	3.812
227.00	3.857
228.00	3.886
229.00	3.883
230.00	3.839
231.00	3.815
232.00	3.848
233.00	3.818
234.00	3.928
235.00	3.870
236.00	3.886
237.00	3.896
238.00	3.873
239.00	3.860
240.00	3.886
241.00	3.921
242.00	3.839
243.00	3.873
244.00	3.936
245.00	3.851
246.00	3.896
247.00	3.876
248.00	3.900
249.00	3.845
250.00	3.848
251.00	3.845
252.00	3.886
253.00	3.848
254.00	3.951
255.00	3.863
256.00	3.879
257.00	3.870
258.00	3.879
259.00	3.928
260.00	3.955
261.00	3.857
262.00	3.845
263.00	3.936
264.00	3.914
265.00	3.886
266.00	3.893
267.00	3.900
268.00	4.018
269.00	3.947
270.00	3.883
271.00	3.932
272.00	4.022
273.00	4.004
274.00	3.932
275.00	3.943
276.00	4.102
277.00	3.947
278.00	3.889
279.00	3.959
280.00	3.936
281.00	3.963
282.00	4.027
283.00	4.060
284.00	4.036
285.00	3.979
286.00	4.009
287.00	4.032
288.00	4.108
289.00	4.081
290.00	4.071
291.00	4.097
292.00	4.208
293.00	4.051
294.00	4.187
295.00	4.114
296.00	4.167
297.00	4.244
298.00	4.119
299.00	4.081
300.00	4.180
301.00	4.060
302.00	4.071
303.00	4.310
304.00	4.092
305.00	4.167
306.00	4.092
307.00	4.215
308.00	4.092
309.00	4.102
310.00	4.060
311.00	4.149
312.00	4.155
313.00	4.167
314.00	4.081
315.00	4.143
316.00	4.292
317.00	4.131
318.00	4.102
319.00	4.237
320.00	4.131
321.00	4.167
322.00	4.194
323.00	4.143
324.00	4.155
325.00	4.102
326.00	4.013
327.00	4.004
328.00	4.032
329.00	4.022
330.00	4.018
331.00	4.056
332.00	4.076
333.00	4.081
334.00	4.022
335.00	4.268
336.00	4.155
337.00	4.187
338.00	3.996
339.00	4.051
340.00	4.027
341.00	4.137
342.00	4.125
343.00	4.071
344.00	4.036
345.00	4.051
346.00	4.161
347.00	4.076
348.00	4.119
349.00	4.046
350.00	4.036
351.00	4.131
352.00	4.149
353.00	4.222
354.00	4.013
355.00	3.975
356.00	4.056
357.00	4.174
358.00	4.081
359.00	4.092
360.00	4.092
361.00	4.092
362.00	4.046
363.00	4.041
364.00	4.013
365.00	3.979
366.00	4.051
367.00	4.036
368.00	4.066
369.00	3.939
370.00	3.785
371.00	3.815
372.00	3.585
373.00	3.536
374.00	3.461
375.00	3.415
376.00	3.323
377.00	3.279
378.00	3.217
379.00	3.139
380.00	3.066
381.00	3.007
382.00	2.924
383.00	2.857
384.00	2.784
385.00	2.709
386.00	2.640
387.00	2.571
388.00	2.499
389.00	2.427
390.00	2.357
391.00	2.292
392.00	2.234
393.00	2.172
394.00	2.114
395.00	2.059
396.00	2.007
397.00	1.958
398.00	1.909
399.00	1.868
400.00	1.825
401.00	1.788
402.00	1.753
403.00	1.722
404.00	1.693
405.00	1.666
406.00	1.643
407.00	1.618
408.00	1.603
409.00	1.586
410.00	1.570
411.00	1.557
412.00	1.549
413.00	1.541
414.00	1.536
415.00	1.532
416.00	1.531
417.00	1.527
418.00	1.529
419.00	1.528
420.00	1.533
421.00	1.535
422.00	1.544
423.00	1.548
424.00	1.556
425.00	1.562
426.00	1.571
427.00	1.580
428.00	1.589
429.00	1.599
430.00	1.610
431.00	1.620
432.00	1.631
433.00	1.640
434.00	1.651
435.00	1.664
436.00	1.675
437.00	1.689
438.00	1.700
439.00	1.708
440.00	1.724
441.00	1.736
442.00	1.749
443.00	1.758
444.00	1.770
445.00	1.783
446.00	1.799
447.00	1.811
448.00	1.824
449.00	1.837
450.00	1.854
451.00	1.869
452.00	1.882
453.00	1.899
454.00	1.913
455.00	1.931
456.00	1.948
457.00	1.966
458.00	1.984
459.00	2.003
460.00	2.025
461.00	2.043
462.00	2.067
463.00	2.092
464.00	2.113
465.00	2.139
466.00	2.166
467.00	2.195
468.00	2.223
469.00	2.255
470.00	2.288
471.00	2.323
472.00	2.354
473.00	2.392
474.00	2.425
475.00	2.469
476.00	2.504
477.00	2.546
478.00	2.580
479.00	2.624
480.00	2.672
481.00	2.717
482.00	2.759
483.00	2.805
484.00	2.849
485.00	2.878
486.00	2.940
487.00	2.988
488.00	3.038
489.00	3.085
490.00	3.131
491.00	3.178
492.00	3.231
493.00	3.280
494.00	3.319
495.00	3.367
496.00	3.413
497.00	3.453
498.00	3.481
499.00	3.523
500.00	3.572
501.00	3.600
502.00	3.638
503.00	3.676
504.00	3.719
505.00	3.752
506.00	3.759
507.00	3.780
508.00	3.836
509.00	3.796
510.00	3.821
511.00	3.851
512.00	3.883
513.00	3.903
514.00	3.932
515.00	3.910
516.00	3.914
517.00	3.939
518.00	3.917
519.00	3.951
520.00	3.967
521.00	3.914
522.00	3.939
523.00	3.959
524.00	3.943
525.00	3.928
526.00	3.951
527.00	3.900
528.00	3.947
529.00	3.910
530.00	3.910
531.00	3.917
532.00	3.924
533.00	3.917
534.00	3.876
535.00	3.851
536.00	3.848
537.00	3.854
538.00	3.810
539.00	3.790
540.00	3.759
541.00	3.712
542.00	3.697
543.00	3.658
544.00	3.600
545.00	3.554
546.00	3.476
547.00	3.457
548.00	3.423
549.00	3.368
550.00	3.303
551.00	3.249
552.00	3.186
553.00	3.121
554.00	3.064
555.00	2.992
556.00	2.926
557.00	2.862
558.00	2.787
559.00	2.720
560.00	2.655
561.00	2.584
562.00	2.520
563.00	2.453
564.00	2.384
565.00	2.317
566.00	2.252
567.00	2.185
568.00	2.119
569.00	2.054
570.00	1.992
571.00	1.928
572.00	1.867
573.00	1.808
574.00	1.748
575.00	1.691
576.00	1.633
577.00	1.577
578.00	1.523
579.00	1.469
580.00	1.408
581.00	1.358
582.00	1.310
583.00	1.264
584.00	1.220
585.00	1.175
586.00	1.132
587.00	1.089
588.00	1.048
589.00	1.007
590.00	0.969
591.00	0.928
592.00	0.892
593.00	0.858
594.00	0.825
595.00	0.792
596.00	0.761
597.00	0.730
598.00	0.702
599.00	0.675
600.00	0.649
601.00	0.624
602.00	0.600
603.00	0.576
604.00	0.553
605.00	0.532
606.00	0.512
607.00	0.491
608.00	0.473
609.00	0.454
610.00	0.437
611.00	0.420
612.00	0.404
613.00	0.390
614.00	0.375
615.00	0.361
616.00	0.349
617.00	0.335
618.00	0.323
619.00	0.311
620.00	0.298
621.00	0.286
622.00	0.276
623.00	0.267
624.00	0.257
625.00	0.247
626.00	0.238
627.00	0.229
628.00	0.221
629.00	0.212
630.00	0.204
631.00	0.197
632.00	0.191
633.00	0.182
634.00	0.175
635.00	0.169
636.00	0.162
637.00	0.156
638.00	0.151
639.00	0.145
640.00	0.137
641.00	0.132
642.00	0.127
643.00	0.121
644.00	0.117
645.00	0.111
646.00	0.107
647.00	0.102
648.00	0.097
649.00	0.094
650.00	0.089
651.00	0.085
652.00	0.081
653.00	0.077
654.00	0.074
655.00	0.070
656.00	0.067
657.00	0.065
658.00	0.061
659.00	0.058
660.00	0.055
661.00	0.052
662.00	0.050
663.00	0.047
664.00	0.045
665.00	0.043
666.00	0.040
667.00	0.037
668.00	0.035
669.00	0.034
670.00	0.032
671.00	0.029
672.00	0.028
673.00	0.027
674.00	0.025
675.00	0.023
676.00	0.023
677.00	0.021
678.00	0.019
679.00	0.019
680.00	0.017
681.00	0.015
682.00	0.013
683.00	0.014
684.00	0.012
685.00	0.011
686.00	0.010
687.00	0.009
688.00	0.010
689.00	0.007
690.00	0.007
691.00	0.006
692.00	0.005
693.00	0.004
694.00	0.002
695.00	0.003
696.00	0.002
697.00	0.001
698.00	0.000
699.00	0.000
700.00	0.000
701.00	-0.001
702.00	-0.002
703.00	-0.002
704.00	-0.003
705.00	-0.003
706.00	-0.004
707.00	-0.003
708.00	-0.004
709.00	-0.003
710.00	-0.003
711.00	-0.004
712.00	-0.006
713.00	-0.005
714.00	-0.005
715.00	-0.006
716.00	-0.006
717.00	-0.006
718.00	-0.006
719.00	-0.007
720.00	-0.008
721.00	-0.007
722.00	-0.008
723.00	-0.008
724.00	-0.009
725.00	-0.010
726.00	-0.009
727.00	-0.010
728.00	-0.011
729.00	-0.012
730.00	-0.011
731.00	-0.013
732.00	-0.013
733.00	-0.013
734.00	-0.012
735.00	-0.013
736.00	-0.014
737.00	-0.015
738.00	-0.014
739.00	-0.014
740.00	-0.015
741.00	-0.016
742.00	-0.015
743.00	-0.016
744.00	-0.017
745.00	-0.017
746.00	-0.017
747.00	-0.017
748.00	-0.017
749.00	-0.017
750.00	-0.018
751.00	-0.019
752.00	-0.019
753.00	-0.019
754.00	-0.018
755.00	-0.020
756.00	-0.019
757.00	-0.020
758.00	-0.020
759.00	-0.020
760.00	-0.021
761.00	-0.019
762.00	-0.021
763.00	-0.021
764.00	-0.020
765.00	-0.021
766.00	-0.023
767.00	-0.022
768.00	-0.022
769.00	-0.022
770.00	-0.023
771.00	-0.022
772.00	-0.021
773.00	-0.022
774.00	-0.023
775.00	-0.021
776.00	-0.022
777.00	-0.021
778.00	-0.022
779.00	-0.023
780.00	-0.023
781.00	-0.023
782.00	-0.023
783.00	-0.023
784.00	-0.023
785.00	-0.023
786.00	-0.025
787.00	-0.024
788.00	-0.024
789.00	-0.024
790.00	-0.024
791.00	-0.025
792.00	-0.023
793.00	-0.025
794.00	-0.025
795.00	-0.025
796.00	-0.024
797.00	-0.023
798.00	-0.023
799.00	-0.027
800.00	-0.025
