Batch	scan004.sre
UV540 113302	None
beetroot Cycle01	08/11/2022 15:54:36PM
nm	A
200.00	3.627
201.00	3.324
202.00	3.567
203.00	3.712
204.00	3.745
205.00	3.529
206.00	3.745
207.00	3.896
208.00	3.622
209.00	3.664
210.00	3.642
211.00	3.620
212.00	3.654
213.00	3.708
214.00	3.785
215.00	3.762
216.00	3.740
217.00	3.719
218.00	3.660
219.00	3.684
220.00	3.693
221.00	3.721
222.00	3.742
223.00	3.750
224.00	3.688
225.00	3.604
226.00	3.625
227.00	3.646
228.00	3.684
229.00	3.670
230.00	3.623
231.00	3.570
232.00	3.567
233.00	3.504
234.00	3.457
235.00	3.353
236.00	3.292
237.00	3.186
238.00	3.107
239.00	3.029
240.00	2.943
241.00	2.886
242.00	2.831
243.00	2.788
244.00	2.749
245.00	2.712
246.00	2.687
247.00	2.662
248.00	2.635
249.00	2.614
250.00	2.596
251.00	2.571
252.00	2.550
253.00	2.533
254.00	2.522
255.00	2.500
256.00	2.489
257.00	2.475
258.00	2.459
259.00	2.451
260.00	2.441
261.00	2.435
262.00	2.427
263.00	2.422
264.00	2.418
265.00	2.408
266.00	2.406
267.00	2.408
268.00	2.410
269.00	2.409
270.00	2.403
271.00	2.388
272.00	2.363
273.00	2.337
274.00	2.310
275.00	2.288
276.00	2.276
277.00	2.261
278.00	2.252
279.00	2.239
280.00	2.207
281.00	2.174
282.00	2.139
283.00	2.103
284.00	2.070
285.00	2.040
286.00	2.013
287.00	1.992
288.00	1.970
289.00	1.942
290.00	1.916
291.00	1.891
292.00	1.866
293.00	1.841
294.00	1.825
295.00	1.803
296.00	1.786
297.00	1.774
298.00	1.761
299.00	1.750
300.00	1.743
301.00	1.730
302.00	1.722
303.00	1.713
304.00	1.702
305.00	1.693
306.00	1.680
307.00	1.671
308.00	1.654
309.00	1.641
310.00	1.624
311.00	1.609
312.00	1.594
313.00	1.578
314.00	1.562
315.00	1.549
316.00	1.533
317.00	1.517
318.00	1.502
319.00	1.487
320.00	1.472
321.00	1.457
322.00	1.438
323.00	1.420
324.00	1.404
325.00	1.378
326.00	1.359
327.00	1.339
328.00	1.318
329.00	1.294
330.00	1.272
331.00	1.250
332.00	1.226
333.00	1.203
334.00	1.179
335.00	1.156
336.00	1.131
337.00	1.105
338.00	1.080
339.00	1.054
340.00	1.028
341.00	1.002
342.00	0.977
343.00	0.953
344.00	0.929
345.00	0.902
346.00	0.877
347.00	0.851
348.00	0.828
349.00	0.804
350.00	0.779
351.00	0.758
352.00	0.737
353.00	0.714
354.00	0.694
355.00	0.672
356.00	0.654
357.00	0.634
358.00	0.616
359.00	0.600
360.00	0.583
361.00	0.567
362.00	0.554
363.00	0.540
364.00	0.525
365.00	0.514
366.00	0.503
367.00	0.489
368.00	0.481
369.00	0.471
370.00	0.461
371.00	0.452
372.00	0.442
373.00	0.435
374.00	0.427
375.00	0.421
376.00	0.415
377.00	0.408
378.00	0.404
379.00	0.399
380.00	0.394
381.00	0.389
382.00	0.385
383.00	0.381
384.00	0.377
385.00	0.374
386.00	0.371
387.00	0.369
388.00	0.367
389.00	0.364
390.00	0.361
391.00	0.360
392.00	0.359
393.00	0.357
394.00	0.356
395.00	0.356
396.00	0.355
397.00	0.356
398.00	0.355
399.00	0.356
400.00	0.355
401.00	0.357
402.00	0.358
403.00	0.360
404.00	0.360
405.00	0.361
406.00	0.364
407.00	0.367
408.00	0.369
409.00	0.373
410.00	0.378
411.00	0.379
412.00	0.384
413.00	0.389
414.00	0.392
415.00	0.398
416.00	0.403
417.00	0.407
418.00	0.413
419.00	0.419
420.00	0.425
421.00	0.432
422.00	0.440
423.00	0.448
424.00	0.453
425.00	0.461
426.00	0.470
427.00	0.478
428.00	0.487
429.00	0.497
430.00	0.509
431.00	0.516
432.00	0.528
433.00	0.536
434.00	0.546
435.00	0.557
436.00	0.568
437.00	0.581
438.00	0.592
439.00	0.602
440.00	0.614
441.00	0.626
442.00	0.639
443.00	0.651
444.00	0.661
445.00	0.676
446.00	0.690
447.00	0.703
448.00	0.716
449.00	0.731
450.00	0.745
451.00	0.759
452.00	0.773
453.00	0.786
454.00	0.798
455.00	0.814
456.00	0.823
457.00	0.840
458.00	0.853
459.00	0.867
460.00	0.881
461.00	0.893
462.00	0.908
463.00	0.922
464.00	0.932
465.00	0.947
466.00	0.960
467.00	0.974
468.00	0.985
469.00	1.000
470.00	1.012
471.00	1.025
472.00	1.036
473.00	1.048
474.00	1.060
475.00	1.073
476.00	1.085
477.00	1.096
478.00	1.107
479.00	1.120
480.00	1.131
481.00	1.144
482.00	1.154
483.00	1.166
484.00	1.176
485.00	1.185
486.00	1.198
487.00	1.209
488.00	1.219
489.00	1.228
490.00	1.238
491.00	1.249
492.00	1.257
493.00	1.267
494.00	1.274
495.00	1.282
496.00	1.291
497.00	1.300
498.00	1.306
499.00	1.314
500.00	1.321
501.00	1.327
502.00	1.332
503.00	1.336
504.00	1.342
505.00	1.346
506.00	1.351
507.00	1.353
508.00	1.357
509.00	1.361
510.00	1.361
511.00	1.363
512.00	1.364
513.00	1.365
514.00	1.364
515.00	1.364
516.00	1.364
517.00	1.361
518.00	1.360
519.00	1.356
520.00	1.354
521.00	1.350
522.00	1.345
523.00	1.339
524.00	1.335
525.00	1.327
526.00	1.320
527.00	1.313
528.00	1.304
529.00	1.295
530.00	1.286
531.00	1.275
532.00	1.263
533.00	1.252
534.00	1.241
535.00	1.227
536.00	1.215
537.00	1.202
538.00	1.187
539.00	1.175
540.00	1.159
541.00	1.143
542.00	1.130
543.00	1.113
544.00	1.095
545.00	1.080
546.00	1.062
547.00	1.046
548.00	1.027
549.00	1.009
550.00	0.992
551.00	0.974
552.00	0.954
553.00	0.938
554.00	0.917
555.00	0.899
556.00	0.878
557.00	0.860
558.00	0.838
559.00	0.819
560.00	0.798
561.00	0.778
562.00	0.760
563.00	0.741
564.00	0.718
565.00	0.698
566.00	0.679
567.00	0.656
568.00	0.635
569.00	0.614
570.00	0.596
571.00	0.574
572.00	0.554
573.00	0.534
574.00	0.513
575.00	0.494
576.00	0.473
577.00	0.455
578.00	0.435
579.00	0.417
580.00	0.397
581.00	0.378
582.00	0.362
583.00	0.344
584.00	0.330
585.00	0.314
586.00	0.298
587.00	0.283
588.00	0.270
589.00	0.256
590.00	0.242
591.00	0.229
592.00	0.216
593.00	0.206
594.00	0.195
595.00	0.184
596.00	0.175
597.00	0.165
598.00	0.157
599.00	0.149
600.00	0.141
601.00	0.136
602.00	0.126
603.00	0.121
604.00	0.115
605.00	0.109
606.00	0.104
607.00	0.098
608.00	0.094
609.00	0.090
610.00	0.086
611.00	0.083
612.00	0.079
613.00	0.077
614.00	0.073
615.00	0.071
616.00	0.069
617.00	0.066
618.00	0.064
619.00	0.060
620.00	0.060
621.00	0.058
622.00	0.056
623.00	0.055
624.00	0.053
625.00	0.052
626.00	0.051
627.00	0.051
628.00	0.049
629.00	0.048
630.00	0.048
631.00	0.047
632.00	0.046
633.00	0.046
634.00	0.045
635.00	0.045
636.00	0.043
637.00	0.044
638.00	0.042
639.00	0.042
640.00	0.041
641.00	0.041
642.00	0.040
643.00	0.040
644.00	0.040
645.00	0.041
646.00	0.040
647.00	0.039
648.00	0.039
649.00	0.039
650.00	0.039
651.00	0.038
652.00	0.038
653.00	0.038
654.00	0.038
655.00	0.037
656.00	0.037
657.00	0.038
658.00	0.037
659.00	0.037
660.00	0.036
661.00	0.036
662.00	0.036
663.00	0.036
664.00	0.036
665.00	0.036
666.00	0.037
667.00	0.035
668.00	0.035
669.00	0.036
670.00	0.035
671.00	0.034
672.00	0.035
673.00	0.036
674.00	0.035
675.00	0.034
676.00	0.035
677.00	0.034
678.00	0.033
679.00	0.034
680.00	0.034
681.00	0.035
682.00	0.033
683.00	0.034
684.00	0.034
685.00	0.033
686.00	0.032
687.00	0.032
688.00	0.034
689.00	0.033
690.00	0.033
691.00	0.033
692.00	0.034
693.00	0.032
694.00	0.031
695.00	0.033
696.00	0.031
697.00	0.033
698.00	0.031
699.00	0.030
700.00	0.033
701.00	0.030
702.00	0.031
703.00	0.030
704.00	0.031
705.00	0.030
706.00	0.031
707.00	0.031
708.00	0.031
709.00	0.031
710.00	0.032
711.00	0.031
712.00	0.030
713.00	0.030
714.00	0.031
715.00	0.030
716.00	0.031
717.00	0.030
718.00	0.030
719.00	0.030
720.00	0.029
721.00	0.030
722.00	0.029
723.00	0.031
724.00	0.030
725.00	0.029
726.00	0.029
727.00	0.030
728.00	0.030
729.00	0.027
730.00	0.028
731.00	0.028
732.00	0.027
733.00	0.027
734.00	0.029
735.00	0.028
736.00	0.027
737.00	0.028
738.00	0.029
739.00	0.029
740.00	0.029
741.00	0.027
742.00	0.027
743.00	0.027
744.00	0.027
745.00	0.027
746.00	0.028
747.00	0.027
748.00	0.027
749.00	0.027
750.00	0.027
751.00	0.028
752.00	0.027
753.00	0.026
754.00	0.028
755.00	0.026
756.00	0.027
757.00	0.025
758.00	0.025
759.00	0.026
760.00	0.026
761.00	0.027
762.00	0.026
763.00	0.027
764.00	0.026
765.00	0.025
766.00	0.026
767.00	0.024
768.00	0.025
769.00	0.027
770.00	0.024
771.00	0.024
772.00	0.025
773.00	0.025
774.00	0.025
775.00	0.025
776.00	0.026
777.00	0.026
778.00	0.025
779.00	0.024
780.00	0.026
781.00	0.025
782.00	0.025
783.00	0.026
784.00	0.025
785.00	0.025
786.00	0.025
787.00	0.026
788.00	0.025
789.00	0.025
790.00	0.025
791.00	0.024
792.00	0.024
793.00	0.025
794.00	0.024
795.00	0.024
796.00	0.024
797.00	0.025
798.00	0.026
799.00	0.022
800.00	0.026
