Batch	scan005.sre
UV540 113302	None
beetroot02 Cycle01	08/11/2022 15:56:21PM
nm	A
200.00	3.652
201.00	3.335
202.00	3.496
203.00	3.650
204.00	3.785
205.00	3.567
206.00	3.762
207.00	3.979
208.00	3.658
209.00	3.662
210.00	3.680
211.00	3.664
212.00	3.752
213.00	3.762
214.00	3.830
215.00	3.750
216.00	3.754
217.00	3.721
218.00	3.592
219.00	3.620
220.00	3.708
221.00	3.690
222.00	3.745
223.00	3.750
224.00	3.660
225.00	3.611
226.00	3.640
227.00	3.666
228.00	3.693
229.00	3.678
230.00	3.631
231.00	3.611
232.00	3.567
233.00	3.489
234.00	3.453
235.00	3.377
236.00	3.300
237.00	3.182
238.00	3.101
239.00	3.029
240.00	2.953
241.00	2.891
242.00	2.833
243.00	2.797
244.00	2.757
245.00	2.721
246.00	2.692
247.00	2.664
248.00	2.637
249.00	2.613
250.00	2.589
251.00	2.574
252.00	2.560
253.00	2.536
254.00	2.522
255.00	2.503
256.00	2.489
257.00	2.473
258.00	2.464
259.00	2.456
260.00	2.446
261.00	2.435
262.00	2.432
263.00	2.424
264.00	2.417
265.00	2.411
266.00	2.409
267.00	2.412
268.00	2.413
269.00	2.410
270.00	2.404
271.00	2.387
272.00	2.366
273.00	2.339
274.00	2.311
275.00	2.288
276.00	2.275
277.00	2.264
278.00	2.256
279.00	2.238
280.00	2.208
281.00	2.171
282.00	2.137
283.00	2.103
284.00	2.073
285.00	2.042
286.00	2.018
287.00	1.992
288.00	1.970
289.00	1.941
290.00	1.917
291.00	1.891
292.00	1.867
293.00	1.842
294.00	1.823
295.00	1.805
296.00	1.789
297.00	1.776
298.00	1.762
299.00	1.752
300.00	1.740
301.00	1.731
302.00	1.721
303.00	1.713
304.00	1.705
305.00	1.694
306.00	1.684
307.00	1.670
308.00	1.658
309.00	1.643
310.00	1.626
311.00	1.610
312.00	1.594
313.00	1.578
314.00	1.563
315.00	1.550
316.00	1.532
317.00	1.518
318.00	1.505
319.00	1.488
320.00	1.474
321.00	1.456
322.00	1.439
323.00	1.424
324.00	1.405
325.00	1.382
326.00	1.363
327.00	1.340
328.00	1.319
329.00	1.295
330.00	1.272
331.00	1.250
332.00	1.226
333.00	1.201
334.00	1.181
335.00	1.155
336.00	1.130
337.00	1.104
338.00	1.081
339.00	1.054
340.00	1.027
341.00	1.003
342.00	0.977
343.00	0.954
344.00	0.929
345.00	0.902
346.00	0.878
347.00	0.852
348.00	0.830
349.00	0.803
350.00	0.778
351.00	0.757
352.00	0.738
353.00	0.715
354.00	0.694
355.00	0.671
356.00	0.654
357.00	0.633
358.00	0.616
359.00	0.600
360.00	0.583
361.00	0.567
362.00	0.554
363.00	0.540
364.00	0.527
365.00	0.513
366.00	0.502
367.00	0.491
368.00	0.482
369.00	0.471
370.00	0.460
371.00	0.452
372.00	0.442
373.00	0.435
374.00	0.428
375.00	0.422
376.00	0.415
377.00	0.409
378.00	0.403
379.00	0.399
380.00	0.394
381.00	0.390
382.00	0.385
383.00	0.381
384.00	0.379
385.00	0.374
386.00	0.372
387.00	0.369
388.00	0.366
389.00	0.365
390.00	0.362
391.00	0.361
392.00	0.359
393.00	0.358
394.00	0.356
395.00	0.356
396.00	0.355
397.00	0.356
398.00	0.356
399.00	0.355
400.00	0.356
401.00	0.357
402.00	0.358
403.00	0.360
404.00	0.360
405.00	0.363
406.00	0.365
407.00	0.367
408.00	0.370
409.00	0.375
410.00	0.376
411.00	0.380
412.00	0.384
413.00	0.388
414.00	0.392
415.00	0.399
416.00	0.403
417.00	0.408
418.00	0.413
419.00	0.419
420.00	0.425
421.00	0.432
422.00	0.440
423.00	0.448
424.00	0.454
425.00	0.463
426.00	0.470
427.00	0.479
428.00	0.488
429.00	0.496
430.00	0.508
431.00	0.515
432.00	0.525
433.00	0.535
434.00	0.547
435.00	0.559
436.00	0.568
437.00	0.580
438.00	0.590
439.00	0.600
440.00	0.613
441.00	0.627
442.00	0.640
443.00	0.650
444.00	0.663
445.00	0.675
446.00	0.692
447.00	0.702
448.00	0.716
449.00	0.729
450.00	0.743
451.00	0.757
452.00	0.772
453.00	0.784
454.00	0.797
455.00	0.811
456.00	0.825
457.00	0.840
458.00	0.852
459.00	0.867
460.00	0.880
461.00	0.893
462.00	0.907
463.00	0.921
464.00	0.932
465.00	0.946
466.00	0.960
467.00	0.972
468.00	0.986
469.00	1.000
470.00	1.012
471.00	1.026
472.00	1.037
473.00	1.051
474.00	1.062
475.00	1.074
476.00	1.085
477.00	1.097
478.00	1.108
479.00	1.119
480.00	1.131
481.00	1.145
482.00	1.154
483.00	1.166
484.00	1.177
485.00	1.184
486.00	1.198
487.00	1.207
488.00	1.218
489.00	1.229
490.00	1.238
491.00	1.248
492.00	1.257
493.00	1.266
494.00	1.274
495.00	1.283
496.00	1.291
497.00	1.299
498.00	1.306
499.00	1.313
500.00	1.320
501.00	1.327
502.00	1.332
503.00	1.335
504.00	1.341
505.00	1.345
506.00	1.350
507.00	1.352
508.00	1.357
509.00	1.360
510.00	1.362
511.00	1.364
512.00	1.363
513.00	1.365
514.00	1.364
515.00	1.365
516.00	1.364
517.00	1.362
518.00	1.358
519.00	1.356
520.00	1.354
521.00	1.349
522.00	1.346
523.00	1.339
524.00	1.334
525.00	1.326
526.00	1.320
527.00	1.313
528.00	1.304
529.00	1.295
530.00	1.284
531.00	1.276
532.00	1.264
533.00	1.253
534.00	1.240
535.00	1.228
536.00	1.216
537.00	1.202
538.00	1.188
539.00	1.175
540.00	1.158
541.00	1.144
542.00	1.130
543.00	1.114
544.00	1.095
545.00	1.080
546.00	1.063
547.00	1.046
548.00	1.027
549.00	1.010
550.00	0.992
551.00	0.975
552.00	0.955
553.00	0.936
554.00	0.918
555.00	0.899
556.00	0.878
557.00	0.860
558.00	0.839
559.00	0.819
560.00	0.799
561.00	0.779
562.00	0.761
563.00	0.741
564.00	0.719
565.00	0.699
566.00	0.678
567.00	0.657
568.00	0.636
569.00	0.615
570.00	0.595
571.00	0.574
572.00	0.553
573.00	0.534
574.00	0.513
575.00	0.493
576.00	0.474
577.00	0.455
578.00	0.435
579.00	0.417
580.00	0.397
581.00	0.379
582.00	0.363
583.00	0.344
584.00	0.330
585.00	0.315
586.00	0.298
587.00	0.283
588.00	0.269
589.00	0.256
590.00	0.242
591.00	0.230
592.00	0.219
593.00	0.207
594.00	0.195
595.00	0.184
596.00	0.175
597.00	0.166
598.00	0.157
599.00	0.150
600.00	0.142
601.00	0.135
602.00	0.126
603.00	0.121
604.00	0.115
605.00	0.109
606.00	0.105
607.00	0.099
608.00	0.094
609.00	0.090
610.00	0.086
611.00	0.083
612.00	0.079
613.00	0.076
614.00	0.073
615.00	0.072
616.00	0.068
617.00	0.066
618.00	0.064
619.00	0.062
620.00	0.059
621.00	0.058
622.00	0.057
623.00	0.055
624.00	0.053
625.00	0.052
626.00	0.052
627.00	0.052
628.00	0.050
629.00	0.048
630.00	0.048
631.00	0.047
632.00	0.047
633.00	0.045
634.00	0.045
635.00	0.044
636.00	0.043
637.00	0.044
638.00	0.044
639.00	0.043
640.00	0.041
641.00	0.041
642.00	0.041
643.00	0.042
644.00	0.041
645.00	0.039
646.00	0.041
647.00	0.039
648.00	0.038
649.00	0.040
650.00	0.039
651.00	0.038
652.00	0.039
653.00	0.038
654.00	0.038
655.00	0.038
656.00	0.037
657.00	0.038
658.00	0.037
659.00	0.036
660.00	0.036
661.00	0.037
662.00	0.037
663.00	0.036
664.00	0.036
665.00	0.037
666.00	0.037
667.00	0.035
668.00	0.035
669.00	0.036
670.00	0.035
671.00	0.034
672.00	0.035
673.00	0.036
674.00	0.035
675.00	0.034
676.00	0.035
677.00	0.034
678.00	0.034
679.00	0.035
680.00	0.034
681.00	0.035
682.00	0.034
683.00	0.033
684.00	0.033
685.00	0.033
686.00	0.033
687.00	0.032
688.00	0.034
689.00	0.033
690.00	0.033
691.00	0.031
692.00	0.032
693.00	0.032
694.00	0.032
695.00	0.032
696.00	0.031
697.00	0.031
698.00	0.031
699.00	0.030
700.00	0.033
701.00	0.031
702.00	0.031
703.00	0.030
704.00	0.030
705.00	0.031
706.00	0.031
707.00	0.032
708.00	0.031
709.00	0.031
710.00	0.033
711.00	0.031
712.00	0.030
713.00	0.030
714.00	0.030
715.00	0.030
716.00	0.030
717.00	0.031
718.00	0.030
719.00	0.029
720.00	0.028
721.00	0.029
722.00	0.029
723.00	0.030
724.00	0.029
725.00	0.029
726.00	0.029
727.00	0.028
728.00	0.029
729.00	0.027
730.00	0.028
731.00	0.028
732.00	0.027
733.00	0.028
734.00	0.028
735.00	0.029
736.00	0.028
737.00	0.028
738.00	0.027
739.00	0.028
740.00	0.028
741.00	0.027
742.00	0.028
743.00	0.027
744.00	0.027
745.00	0.027
746.00	0.028
747.00	0.027
748.00	0.028
749.00	0.027
750.00	0.026
751.00	0.027
752.00	0.026
753.00	0.026
754.00	0.027
755.00	0.026
756.00	0.027
757.00	0.025
758.00	0.026
759.00	0.025
760.00	0.026
761.00	0.026
762.00	0.026
763.00	0.025
764.00	0.026
765.00	0.024
766.00	0.025
767.00	0.026
768.00	0.024
769.00	0.025
770.00	0.026
771.00	0.024
772.00	0.026
773.00	0.025
774.00	0.026
775.00	0.026
776.00	0.027
777.00	0.025
778.00	0.026
779.00	0.025
780.00	0.024
781.00	0.024
782.00	0.025
783.00	0.025
784.00	0.025
785.00	0.025
786.00	0.026
787.00	0.025
788.00	0.025
789.00	0.024
790.00	0.025
791.00	0.024
792.00	0.024
793.00	0.025
794.00	0.024
795.00	0.022
796.00	0.024
797.00	0.024
798.00	0.025
799.00	0.023
800.00	0.025
