Batch	scan004.sre
Evolution 600 288002	100%T Baseline Correction
Sample001 Cycle01	08/11/2022 14:26:24PM
nm	A
200.00	XXX.XXX
201.00	XXX.XXX
202.00	XXX.XXX
203.00	XXX.XXX
204.00	XXX.XXX
205.00	XXX.XXX
206.00	XXX.XXX
207.00	XXX.XXX
208.00	XXX.XXX
209.00	XXX.XXX
210.00	XXX.XXX
211.00	XXX.XXX
212.00	XXX.XXX
213.00	XXX.XXX
214.00	XXX.XXX
215.00	XXX.XXX
216.00	XXX.XXX
217.00	XXX.XXX
218.00	XXX.XXX
219.00	XXX.XXX
220.00	XXX.XXX
221.00	XXX.XXX
222.00	XXX.XXX
223.00	XXX.XXX
224.00	XXX.XXX
225.00	XXX.XXX
226.00	XXX.XXX
227.00	XXX.XXX
228.00	XXX.XXX
229.00	XXX.XXX
230.00	XXX.XXX
231.00	XXX.XXX
232.00	XXX.XXX
233.00	XXX.XXX
234.00	XXX.XXX
235.00	XXX.XXX
236.00	XXX.XXX
237.00	XXX.XXX
238.00	XXX.XXX
239.00	XXX.XXX
240.00	XXX.XXX
241.00	XXX.XXX
242.00	XXX.XXX
243.00	XXX.XXX
244.00	XXX.XXX
245.00	XXX.XXX
246.00	XXX.XXX
247.00	XXX.XXX
248.00	XXX.XXX
249.00	XXX.XXX
250.00	XXX.XXX
251.00	XXX.XXX
252.00	XXX.XXX
253.00	XXX.XXX
254.00	XXX.XXX
255.00	XXX.XXX
256.00	XXX.XXX
257.00	XXX.XXX
258.00	XXX.XXX
259.00	XXX.XXX
260.00	XXX.XXX
261.00	XXX.XXX
262.00	XXX.XXX
263.00	XXX.XXX
264.00	XXX.XXX
265.00	XXX.XXX
266.00	XXX.XXX
267.00	XXX.XXX
268.00	XXX.XXX
269.00	XXX.XXX
270.00	XXX.XXX
271.00	XXX.XXX
272.00	XXX.XXX
273.00	XXX.XXX
274.00	XXX.XXX
275.00	XXX.XXX
276.00	XXX.XXX
277.00	XXX.XXX
278.00	XXX.XXX
279.00	XXX.XXX
280.00	XXX.XXX
281.00	XXX.XXX
282.00	XXX.XXX
283.00	XXX.XXX
284.00	XXX.XXX
285.00	XXX.XXX
286.00	XXX.XXX
287.00	XXX.XXX
288.00	XXX.XXX
289.00	XXX.XXX
290.00	XXX.XXX
291.00	XXX.XXX
292.00	XXX.XXX
293.00	XXX.XXX
294.00	XXX.XXX
295.00	XXX.XXX
296.00	XXX.XXX
297.00	XXX.XXX
298.00	XXX.XXX
299.00	XXX.XXX
300.00	XXX.XXX
301.00	XXX.XXX
302.00	XXX.XXX
303.00	XXX.XXX
304.00	XXX.XXX
305.00	5.174
306.00	4.450
307.00	3.978
308.00	3.625
309.00	3.487
310.00	3.435
311.00	3.199
312.00	3.122
313.00	2.961
314.00	2.913
315.00	2.795
316.00	2.714
317.00	2.648
318.00	2.561
319.00	2.491
320.00	2.443
321.00	2.370
322.00	2.335
323.00	2.299
324.00	2.241
325.00	2.083
326.00	2.049
327.00	2.008
328.00	1.997
329.00	1.965
330.00	1.941
331.00	1.924
332.00	1.892
333.00	1.866
334.00	1.833
335.00	1.814
336.00	1.782
337.00	1.762
338.00	1.729
339.00	1.697
340.00	1.662
341.00	1.625
342.00	1.586
343.00	1.547
344.00	1.506
345.00	1.457
346.00	1.412
347.00	1.363
348.00	1.313
349.00	1.268
350.00	1.219
351.00	1.175
352.00	1.122
353.00	1.078
354.00	1.029
355.00	0.983
356.00	0.941
357.00	0.906
358.00	0.867
359.00	0.833
360.00	0.804
361.00	0.775
362.00	0.749
363.00	0.726
364.00	0.703
365.00	0.685
366.00	0.666
367.00	0.647
368.00	0.633
369.00	0.617
370.00	0.606
371.00	0.595
372.00	0.585
373.00	0.573
374.00	0.566
375.00	0.560
376.00	0.551
377.00	0.542
378.00	0.536
379.00	0.530
380.00	0.523
381.00	0.515
382.00	0.507
383.00	0.504
384.00	0.494
385.00	0.489
386.00	0.483
387.00	0.483
388.00	0.473
389.00	0.467
390.00	0.463
391.00	0.457
392.00	0.454
393.00	0.449
394.00	0.446
395.00	0.441
396.00	0.437
397.00	0.431
398.00	0.432
399.00	0.428
400.00	0.422
401.00	0.420
402.00	0.418
403.00	0.414
404.00	0.414
405.00	0.408
406.00	0.408
407.00	0.401
408.00	0.402
409.00	0.396
410.00	0.396
411.00	0.392
412.00	0.391
413.00	0.387
414.00	0.385
415.00	0.382
416.00	0.377
417.00	0.377
418.00	0.373
419.00	0.374
420.00	0.371
421.00	0.369
422.00	0.366
423.00	0.366
424.00	0.362
425.00	0.360
426.00	0.358
427.00	0.356
428.00	0.354
429.00	0.352
430.00	0.353
431.00	0.350
432.00	0.346
433.00	0.346
434.00	0.342
435.00	0.344
436.00	0.341
437.00	0.337
438.00	0.336
439.00	0.331
440.00	0.332
441.00	0.330
442.00	0.333
443.00	0.326
444.00	0.326
445.00	0.325
446.00	0.324
447.00	0.323
448.00	0.321
449.00	0.316
450.00	0.316
451.00	0.312
452.00	0.312
453.00	0.308
454.00	0.310
455.00	0.306
456.00	0.306
457.00	0.307
458.00	0.302
459.00	0.301
460.00	0.299
461.00	0.297
462.00	0.297
463.00	0.295
464.00	0.297
465.00	0.294
466.00	0.292
467.00	0.290
468.00	0.289
469.00	0.287
470.00	0.286
471.00	0.284
472.00	0.284
473.00	0.280
474.00	0.280
475.00	0.280
476.00	0.281
477.00	0.280
478.00	0.277
479.00	0.275
480.00	0.273
481.00	0.274
482.00	0.272
483.00	0.271
484.00	0.267
485.00	0.268
486.00	0.269
487.00	0.267
488.00	0.266
489.00	0.266
490.00	0.263
491.00	0.262
492.00	0.261
493.00	0.260
494.00	0.261
495.00	0.261
496.00	0.258
497.00	0.258
498.00	0.258
499.00	0.256
500.00	0.256
501.00	0.255
502.00	0.253
503.00	0.253
504.00	0.252
505.00	0.248
506.00	0.249
507.00	0.248
508.00	0.250
509.00	0.246
510.00	0.248
511.00	0.247
512.00	0.247
513.00	0.244
514.00	0.246
515.00	0.243
516.00	0.241
517.00	0.243
518.00	0.241
519.00	0.242
520.00	0.240
521.00	0.241
522.00	0.241
523.00	0.239
524.00	0.240
525.00	0.237
526.00	0.238
527.00	0.239
528.00	0.237
529.00	0.237
530.00	0.234
531.00	0.231
532.00	0.236
533.00	0.234
534.00	0.234
535.00	0.231
536.00	0.231
537.00	0.230
538.00	0.230
539.00	0.227
540.00	0.228
541.00	0.227
542.00	0.229
543.00	0.228
544.00	0.227
545.00	0.228
546.00	0.225
547.00	0.228
548.00	0.226
549.00	0.225
550.00	0.225
551.00	0.223
552.00	0.222
553.00	0.223
554.00	0.220
555.00	0.222
556.00	0.221
557.00	0.220
558.00	0.218
559.00	0.220
560.00	0.219
561.00	0.217
562.00	0.217
563.00	0.217
564.00	0.216
565.00	0.217
566.00	0.214
567.00	0.217
568.00	0.215
569.00	0.214
570.00	0.216
571.00	0.215
572.00	0.216
573.00	0.211
574.00	0.213
575.00	0.211
576.00	0.212
577.00	0.209
578.00	0.208
579.00	0.212
580.00	0.211
581.00	0.209
582.00	0.210
583.00	0.208
584.00	0.207
585.00	0.206
586.00	0.207
587.00	0.206
588.00	0.206
589.00	0.205
590.00	0.205
591.00	0.206
592.00	0.204
593.00	0.207
594.00	0.203
595.00	0.203
596.00	0.203
597.00	0.203
598.00	0.203
599.00	0.201
600.00	0.200
