Batch	scan003.sre
UV540 113302	None
Sample001 Cycle01	08/11/2022 15:48:45PM
nm	A
200.00	2.919
201.00	1.373
202.00	1.643
203.00	2.019
204.00	2.586
205.00	2.634
206.00	3.285
207.00	4.114
208.00	3.457
209.00	3.451
210.00	3.690
211.00	3.907
212.00	4.174
213.00	4.137
214.00	4.149
215.00	4.161
216.00	4.602
217.00	4.357
218.00	3.896
219.00	4.161
220.00	4.292
221.00	4.319
222.00	5.222
223.00	XXX.XXX
224.00	4.357
225.00	4.041
226.00	4.229
227.00	4.620
228.00	XXX.XXX
229.00	XXX.XXX
230.00	4.553
231.00	4.553
232.00	4.602
233.00	4.523
234.00	5.000
235.00	5.155
236.00	XXX.XXX
237.00	4.699
238.00	XXX.XXX
239.00	4.523
240.00	XXX.XXX
241.00	5.222
242.00	5.000
243.00	4.796
244.00	5.000
245.00	4.745
246.00	5.301
247.00	4.770
248.00	4.959
249.00	4.602
250.00	5.000
251.00	4.886
252.00	4.745
253.00	4.553
254.00	4.745
255.00	4.456
256.00	4.569
257.00	4.495
258.00	4.432
259.00	4.678
260.00	4.553
261.00	4.108
262.00	3.971
263.00	3.873
264.00	3.764
265.00	3.695
266.00	3.631
267.00	3.597
268.00	3.600
269.00	3.542
270.00	3.551
271.00	3.569
272.00	3.578
273.00	3.652
274.00	3.676
275.00	3.724
276.00	3.830
277.00	3.807
278.00	3.907
279.00	4.022
280.00	4.108
281.00	4.125
282.00	4.155
283.00	4.301
284.00	4.347
285.00	4.215
286.00	4.268
287.00	4.301
288.00	4.432
289.00	4.444
290.00	4.301
291.00	4.337
292.00	4.481
293.00	4.347
294.00	4.469
295.00	4.337
296.00	4.367
297.00	4.495
298.00	4.409
299.00	4.284
300.00	4.420
301.00	4.161
302.00	4.194
303.00	4.222
304.00	4.137
305.00	3.971
306.00	3.979
307.00	3.983
308.00	3.955
309.00	3.910
310.00	3.983
311.00	3.971
312.00	4.018
313.00	4.086
314.00	4.071
315.00	4.027
316.00	3.863
317.00	3.738
318.00	3.658
319.00	3.445
320.00	3.173
321.00	2.877
322.00	2.601
323.00	2.367
324.00	2.171
325.00	2.008
326.00	1.886
327.00	1.790
328.00	1.730
329.00	1.679
330.00	1.641
331.00	1.614
332.00	1.588
333.00	1.565
334.00	1.545
335.00	1.534
336.00	1.519
337.00	1.502
338.00	1.493
339.00	1.482
340.00	1.473
341.00	1.470
342.00	1.463
343.00	1.457
344.00	1.450
345.00	1.444
346.00	1.442
347.00	1.433
348.00	1.432
349.00	1.424
350.00	1.419
351.00	1.416
352.00	1.413
353.00	1.407
354.00	1.402
355.00	1.397
356.00	1.395
357.00	1.392
358.00	1.388
359.00	1.387
360.00	1.384
361.00	1.384
362.00	1.383
363.00	1.383
364.00	1.381
365.00	1.379
366.00	1.380
367.00	1.378
368.00	1.381
369.00	1.378
370.00	1.377
371.00	1.378
372.00	1.378
373.00	1.378
374.00	1.380
375.00	1.380
376.00	1.382
377.00	1.381
378.00	1.384
379.00	1.385
380.00	1.385
381.00	1.387
382.00	1.389
383.00	1.390
384.00	1.392
385.00	1.395
386.00	1.398
387.00	1.401
388.00	1.404
389.00	1.408
390.00	1.413
391.00	1.417
392.00	1.421
393.00	1.424
394.00	1.429
395.00	1.434
396.00	1.439
397.00	1.445
398.00	1.448
399.00	1.454
400.00	1.456
401.00	1.460
402.00	1.465
403.00	1.469
404.00	1.469
405.00	1.472
406.00	1.476
407.00	1.479
408.00	1.483
409.00	1.486
410.00	1.485
411.00	1.487
412.00	1.488
413.00	1.490
414.00	1.493
415.00	1.493
416.00	1.494
417.00	1.495
418.00	1.497
419.00	1.497
420.00	1.497
421.00	1.497
422.00	1.498
423.00	1.500
424.00	1.498
425.00	1.497
426.00	1.497
427.00	1.498
428.00	1.496
429.00	1.493
430.00	1.495
431.00	1.491
432.00	1.490
433.00	1.485
434.00	1.483
435.00	1.484
436.00	1.480
437.00	1.480
438.00	1.478
439.00	1.474
440.00	1.472
441.00	1.470
442.00	1.469
443.00	1.465
444.00	1.464
445.00	1.461
446.00	1.462
447.00	1.458
448.00	1.457
449.00	1.455
450.00	1.453
451.00	1.453
452.00	1.451
453.00	1.449
454.00	1.447
455.00	1.445
456.00	1.441
457.00	1.439
458.00	1.437
459.00	1.434
460.00	1.430
461.00	1.424
462.00	1.420
463.00	1.416
464.00	1.412
465.00	1.408
466.00	1.403
467.00	1.395
468.00	1.388
469.00	1.384
470.00	1.377
471.00	1.371
472.00	1.363
473.00	1.357
474.00	1.349
475.00	1.343
476.00	1.336
477.00	1.326
478.00	1.317
479.00	1.311
480.00	1.304
481.00	1.299
482.00	1.290
483.00	1.285
484.00	1.277
485.00	1.270
486.00	1.264
487.00	1.257
488.00	1.252
489.00	1.245
490.00	1.242
491.00	1.237
492.00	1.232
493.00	1.228
494.00	1.225
495.00	1.222
496.00	1.219
497.00	1.218
498.00	1.216
499.00	1.216
500.00	1.216
501.00	1.216
502.00	1.216
503.00	1.216
504.00	1.219
505.00	1.219
506.00	1.222
507.00	1.223
508.00	1.227
509.00	1.231
510.00	1.234
511.00	1.238
512.00	1.241
513.00	1.246
514.00	1.250
515.00	1.254
516.00	1.260
517.00	1.264
518.00	1.269
519.00	1.274
520.00	1.279
521.00	1.284
522.00	1.289
523.00	1.292
524.00	1.297
525.00	1.299
526.00	1.304
527.00	1.307
528.00	1.312
529.00	1.315
530.00	1.316
531.00	1.318
532.00	1.319
533.00	1.321
534.00	1.322
535.00	1.321
536.00	1.320
537.00	1.320
538.00	1.319
539.00	1.318
540.00	1.314
541.00	1.310
542.00	1.307
543.00	1.301
544.00	1.295
545.00	1.289
546.00	1.282
547.00	1.275
548.00	1.266
549.00	1.257
550.00	1.247
551.00	1.237
552.00	1.224
553.00	1.213
554.00	1.201
555.00	1.188
556.00	1.173
557.00	1.159
558.00	1.143
559.00	1.128
560.00	1.113
561.00	1.097
562.00	1.081
563.00	1.066
564.00	1.047
565.00	1.030
566.00	1.012
567.00	0.994
568.00	0.976
569.00	0.958
570.00	0.942
571.00	0.923
572.00	0.906
573.00	0.889
574.00	0.871
575.00	0.854
576.00	0.837
577.00	0.820
578.00	0.803
579.00	0.786
580.00	0.768
581.00	0.752
582.00	0.738
583.00	0.721
584.00	0.709
585.00	0.695
586.00	0.680
587.00	0.666
588.00	0.655
589.00	0.640
590.00	0.630
591.00	0.616
592.00	0.604
593.00	0.595
594.00	0.584
595.00	0.572
596.00	0.563
597.00	0.553
598.00	0.544
599.00	0.536
600.00	0.529
601.00	0.522
602.00	0.512
603.00	0.504
604.00	0.498
605.00	0.491
606.00	0.485
607.00	0.477
608.00	0.473
609.00	0.466
610.00	0.460
611.00	0.454
612.00	0.450
613.00	0.444
614.00	0.438
615.00	0.435
616.00	0.430
617.00	0.427
618.00	0.422
619.00	0.417
620.00	0.413
621.00	0.409
622.00	0.406
623.00	0.403
624.00	0.399
625.00	0.395
626.00	0.393
627.00	0.389
628.00	0.386
629.00	0.382
630.00	0.379
631.00	0.377
632.00	0.373
633.00	0.369
634.00	0.368
635.00	0.364
636.00	0.361
637.00	0.359
638.00	0.356
639.00	0.354
640.00	0.351
641.00	0.348
642.00	0.345
643.00	0.344
644.00	0.340
645.00	0.338
646.00	0.336
647.00	0.333
648.00	0.331
649.00	0.330
650.00	0.327
651.00	0.323
652.00	0.322
653.00	0.321
654.00	0.318
655.00	0.316
656.00	0.313
657.00	0.312
658.00	0.310
659.00	0.307
660.00	0.304
661.00	0.303
662.00	0.301
663.00	0.299
664.00	0.297
665.00	0.295
666.00	0.294
667.00	0.290
668.00	0.288
669.00	0.287
670.00	0.284
671.00	0.283
672.00	0.281
673.00	0.280
674.00	0.276
675.00	0.275
676.00	0.274
677.00	0.271
678.00	0.270
679.00	0.268
680.00	0.266
681.00	0.265
682.00	0.261
683.00	0.261
684.00	0.259
685.00	0.257
686.00	0.254
687.00	0.253
688.00	0.253
689.00	0.249
690.00	0.246
691.00	0.245
692.00	0.244
693.00	0.242
694.00	0.240
695.00	0.237
696.00	0.236
697.00	0.235
698.00	0.233
699.00	0.231
700.00	0.231
701.00	0.226
702.00	0.225
703.00	0.223
704.00	0.222
705.00	0.220
706.00	0.217
707.00	0.217
708.00	0.215
709.00	0.213
710.00	0.212
711.00	0.210
712.00	0.208
713.00	0.205
714.00	0.205
715.00	0.203
716.00	0.201
717.00	0.200
718.00	0.197
719.00	0.196
720.00	0.193
721.00	0.193
722.00	0.191
723.00	0.189
724.00	0.188
725.00	0.186
726.00	0.184
727.00	0.183
728.00	0.180
729.00	0.178
730.00	0.177
731.00	0.175
732.00	0.173
733.00	0.171
734.00	0.172
735.00	0.172
736.00	0.169
737.00	0.168
738.00	0.166
739.00	0.166
740.00	0.163
741.00	0.162
742.00	0.159
743.00	0.159
744.00	0.158
745.00	0.155
746.00	0.155
747.00	0.154
748.00	0.152
749.00	0.150
750.00	0.150
751.00	0.149
752.00	0.146
753.00	0.145
754.00	0.146
755.00	0.144
756.00	0.144
757.00	0.142
758.00	0.141
759.00	0.139
760.00	0.138
761.00	0.139
762.00	0.136
763.00	0.135
764.00	0.135
765.00	0.135
766.00	0.132
767.00	0.131
768.00	0.131
769.00	0.131
770.00	0.130
771.00	0.128
772.00	0.129
773.00	0.128
774.00	0.126
775.00	0.127
776.00	0.126
777.00	0.126
778.00	0.125
779.00	0.123
780.00	0.124
781.00	0.122
782.00	0.122
783.00	0.122
784.00	0.123
785.00	0.120
786.00	0.119
787.00	0.120
788.00	0.119
789.00	0.117
790.00	0.118
791.00	0.115
792.00	0.117
793.00	0.116
794.00	0.114
795.00	0.115
796.00	0.115
797.00	0.114
798.00	0.114
799.00	0.112
800.00	0.115
