Batch	scan006
Evolution 600 288002	100%T Baseline Correction
Sample001 Cycle01	16/11/2022 09:48:22AM
nm	A
300.00	2.662
301.00	2.634
302.00	2.616
303.00	2.586
304.00	2.558
305.00	2.553
306.00	2.517
307.00	2.494
308.00	2.470
309.00	2.453
310.00	2.432
311.00	2.405
312.00	2.376
313.00	2.352
314.00	2.329
315.00	2.311
316.00	2.273
317.00	2.260
318.00	2.236
319.00	2.211
320.00	2.186
321.00	2.161
322.00	2.141
323.00	2.117
324.00	2.084
325.00	2.048
326.00	2.017
327.00	1.990
328.00	1.963
329.00	1.939
330.00	1.914
331.00	1.883
332.00	1.854
333.00	1.828
334.00	1.799
335.00	1.775
336.00	1.749
337.00	1.721
338.00	1.692
339.00	1.666
340.00	1.640
341.00	1.611
342.00	1.590
343.00	1.563
344.00	1.538
345.00	1.514
346.00	1.490
347.00	1.464
348.00	1.443
349.00	1.419
350.00	1.396
351.00	1.371
352.00	1.354
353.00	1.329
354.00	1.311
355.00	1.292
356.00	1.270
357.00	1.250
358.00	1.229
359.00	1.215
360.00	1.198
361.00	1.183
362.00	1.168
363.00	1.155
364.00	1.138
365.00	1.126
366.00	1.114
367.00	1.102
368.00	1.091
369.00	1.080
370.00	1.068
371.00	1.057
372.00	1.046
373.00	1.036
374.00	1.028
375.00	1.017
376.00	1.005
377.00	0.998
378.00	0.991
379.00	0.982
380.00	0.974
381.00	0.968
382.00	0.960
383.00	0.953
384.00	0.945
385.00	0.935
386.00	0.931
387.00	0.923
388.00	0.917
389.00	0.910
390.00	0.902
391.00	0.898
392.00	0.892
393.00	0.885
394.00	0.882
395.00	0.878
396.00	0.871
397.00	0.868
398.00	0.862
399.00	0.858
400.00	0.852
401.00	0.851
402.00	0.846
403.00	0.841
404.00	0.838
405.00	0.834
406.00	0.832
407.00	0.828
408.00	0.823
409.00	0.824
410.00	0.817
411.00	0.817
412.00	0.814
413.00	0.813
414.00	0.806
415.00	0.806
416.00	0.804
417.00	0.802
418.00	0.800
419.00	0.798
420.00	0.796
421.00	0.792
422.00	0.793
423.00	0.792
424.00	0.789
425.00	0.790
426.00	0.788
427.00	0.787
428.00	0.785
429.00	0.784
430.00	0.785
431.00	0.784
432.00	0.785
433.00	0.783
434.00	0.781
435.00	0.782
436.00	0.783
437.00	0.781
438.00	0.780
439.00	0.781
440.00	0.784
441.00	0.782
442.00	0.783
443.00	0.783
444.00	0.786
445.00	0.784
446.00	0.786
447.00	0.788
448.00	0.789
449.00	0.789
450.00	0.792
451.00	0.794
452.00	0.794
453.00	0.797
454.00	0.800
455.00	0.801
456.00	0.802
457.00	0.807
458.00	0.808
459.00	0.811
460.00	0.814
461.00	0.817
462.00	0.819
463.00	0.823
464.00	0.826
465.00	0.827
466.00	0.833
467.00	0.836
468.00	0.840
469.00	0.843
470.00	0.846
471.00	0.852
472.00	0.857
473.00	0.861
474.00	0.865
475.00	0.870
476.00	0.875
477.00	0.878
478.00	0.886
479.00	0.888
480.00	0.893
481.00	0.897
482.00	0.904
483.00	0.908
484.00	0.915
485.00	0.918
486.00	0.924
487.00	0.931
488.00	0.931
489.00	0.939
490.00	0.944
491.00	0.948
492.00	0.952
493.00	0.957
494.00	0.961
495.00	0.967
496.00	0.971
497.00	0.973
498.00	0.978
499.00	0.980
500.00	0.984
501.00	0.985
502.00	0.988
503.00	0.990
504.00	0.993
505.00	0.996
506.00	0.997
507.00	0.996
508.00	0.997
509.00	0.999
510.00	0.998
511.00	0.999
512.00	0.999
513.00	0.999
514.00	0.998
515.00	0.995
516.00	0.992
517.00	0.990
518.00	0.990
519.00	0.985
520.00	0.984
521.00	0.981
522.00	0.976
523.00	0.972
524.00	0.968
525.00	0.964
526.00	0.960
527.00	0.953
528.00	0.946
529.00	0.941
530.00	0.932
531.00	0.927
532.00	0.919
533.00	0.911
534.00	0.904
535.00	0.896
536.00	0.885
537.00	0.876
538.00	0.868
539.00	0.857
540.00	0.850
541.00	0.840
542.00	0.830
543.00	0.820
544.00	0.810
545.00	0.798
546.00	0.787
547.00	0.778
548.00	0.766
549.00	0.758
550.00	0.745
551.00	0.736
552.00	0.725
553.00	0.713
554.00	0.701
555.00	0.690
556.00	0.678
557.00	0.668
558.00	0.657
559.00	0.646
560.00	0.635
561.00	0.624
562.00	0.613
563.00	0.601
564.00	0.590
565.00	0.579
566.00	0.567
567.00	0.558
568.00	0.545
569.00	0.535
570.00	0.523
571.00	0.515
572.00	0.504
573.00	0.492
574.00	0.482
575.00	0.471
576.00	0.461
577.00	0.453
578.00	0.441
579.00	0.433
580.00	0.425
581.00	0.417
582.00	0.406
583.00	0.400
584.00	0.393
585.00	0.384
586.00	0.378
587.00	0.370
588.00	0.364
589.00	0.359
590.00	0.351
591.00	0.344
592.00	0.339
593.00	0.332
594.00	0.326
595.00	0.323
596.00	0.318
597.00	0.311
598.00	0.308
599.00	0.303
600.00	0.298
601.00	0.296
602.00	0.293
603.00	0.288
604.00	0.285
605.00	0.283
606.00	0.280
607.00	0.276
608.00	0.273
609.00	0.270
610.00	0.268
611.00	0.267
612.00	0.264
613.00	0.262
614.00	0.256
615.00	0.256
616.00	0.255
617.00	0.253
618.00	0.250
619.00	0.249
620.00	0.248
621.00	0.248
622.00	0.245
623.00	0.244
624.00	0.243
625.00	0.237
626.00	0.241
627.00	0.236
628.00	0.237
629.00	0.236
630.00	0.233
631.00	0.235
632.00	0.230
633.00	0.231
634.00	0.229
635.00	0.228
636.00	0.226
637.00	0.224
638.00	0.223
639.00	0.225
640.00	0.222
641.00	0.224
642.00	0.221
643.00	0.220
644.00	0.219
645.00	0.219
646.00	0.217
647.00	0.218
648.00	0.214
649.00	0.216
650.00	0.215
651.00	0.211
652.00	0.213
653.00	0.210
654.00	0.211
655.00	0.210
656.00	0.208
657.00	0.207
658.00	0.208
659.00	0.207
660.00	0.206
661.00	0.205
662.00	0.205
663.00	0.204
664.00	0.202
665.00	0.203
666.00	0.201
667.00	0.200
668.00	0.199
669.00	0.200
670.00	0.199
671.00	0.198
672.00	0.197
673.00	0.197
674.00	0.197
675.00	0.197
676.00	0.195
677.00	0.192
678.00	0.195
679.00	0.191
680.00	0.192
681.00	0.193
682.00	0.189
683.00	0.189
684.00	0.191
685.00	0.188
686.00	0.189
687.00	0.188
688.00	0.189
689.00	0.186
690.00	0.189
691.00	0.185
692.00	0.186
693.00	0.182
694.00	0.185
695.00	0.185
696.00	0.184
697.00	0.181
698.00	0.182
699.00	0.181
700.00	0.180
701.00	0.180
702.00	0.180
703.00	0.180
704.00	0.178
705.00	0.178
706.00	0.176
707.00	0.176
708.00	0.176
709.00	0.175
710.00	0.174
711.00	0.176
712.00	0.174
713.00	0.175
714.00	0.172
715.00	0.174
716.00	0.172
717.00	0.170
718.00	0.172
719.00	0.172
720.00	0.170
721.00	0.170
722.00	0.169
723.00	0.169
724.00	0.168
725.00	0.168
726.00	0.167
727.00	0.168
728.00	0.166
729.00	0.167
730.00	0.164
731.00	0.167
732.00	0.166
733.00	0.164
734.00	0.165
735.00	0.163
736.00	0.164
737.00	0.161
738.00	0.162
739.00	0.161
740.00	0.161
741.00	0.162
742.00	0.162
743.00	0.159
744.00	0.159
745.00	0.158
746.00	0.160
747.00	0.157
748.00	0.156
749.00	0.157
750.00	0.158
751.00	0.158
752.00	0.156
753.00	0.155
754.00	0.155
755.00	0.155
756.00	0.154
757.00	0.155
758.00	0.154
759.00	0.153
760.00	0.153
761.00	0.150
762.00	0.153
763.00	0.153
764.00	0.151
765.00	0.150
766.00	0.151
767.00	0.150
768.00	0.150
769.00	0.148
770.00	0.148
771.00	0.150
772.00	0.149
773.00	0.149
774.00	0.149
775.00	0.148
776.00	0.148
777.00	0.148
778.00	0.145
779.00	0.148
780.00	0.144
781.00	0.144
782.00	0.145
783.00	0.143
784.00	0.143
785.00	0.144
786.00	0.143
787.00	0.145
788.00	0.144
789.00	0.142
790.00	0.143
791.00	0.145
792.00	0.141
793.00	0.141
794.00	0.143
795.00	0.142
796.00	0.142
797.00	0.140
798.00	0.139
799.00	0.139
800.00	0.141
