Batch	scan003-blueberry.sre
UV540 113302	None
blueberry03 Cycle01	08/11/2022 16:21:48PM
nm	A
200.00	4.071
201.00	3.394
202.00	3.553
203.00	3.646
204.00	3.873
205.00	3.668
206.00	3.790
207.00	4.167
208.00	3.664
209.00	3.642
210.00	3.597
211.00	3.796
212.00	3.836
213.00	3.754
214.00	3.896
215.00	3.833
216.00	3.870
217.00	3.824
218.00	3.717
219.00	3.783
220.00	3.770
221.00	3.833
222.00	3.886
223.00	3.827
224.00	3.759
225.00	3.682
226.00	3.728
227.00	3.804
228.00	3.873
229.00	3.807
230.00	3.747
231.00	3.695
232.00	3.762
233.00	3.750
234.00	3.799
235.00	3.799
236.00	3.845
237.00	3.804
238.00	3.783
239.00	3.796
240.00	3.783
241.00	3.793
242.00	3.775
243.00	3.815
244.00	3.848
245.00	3.788
246.00	3.790
247.00	3.839
248.00	3.796
249.00	3.775
250.00	3.780
251.00	3.770
252.00	3.812
253.00	3.783
254.00	3.833
255.00	3.793
256.00	3.788
257.00	3.770
258.00	3.770
259.00	3.854
260.00	3.883
261.00	3.730
262.00	3.821
263.00	3.788
264.00	3.815
265.00	3.842
266.00	3.796
267.00	3.845
268.00	3.873
269.00	3.863
270.00	3.804
271.00	3.896
272.00	3.873
273.00	3.947
274.00	3.833
275.00	3.893
276.00	3.936
277.00	3.876
278.00	3.907
279.00	3.854
280.00	3.854
281.00	3.921
282.00	3.866
283.00	3.955
284.00	3.975
285.00	3.924
286.00	3.928
287.00	3.903
288.00	4.051
289.00	3.959
290.00	3.936
291.00	4.013
292.00	4.092
293.00	3.987
294.00	4.060
295.00	4.018
296.00	4.056
297.00	4.086
298.00	4.046
299.00	4.027
300.00	4.108
301.00	4.046
302.00	3.979
303.00	4.125
304.00	4.009
305.00	4.032
306.00	4.119
307.00	4.131
308.00	4.187
309.00	4.046
310.00	4.060
311.00	4.114
312.00	4.086
313.00	4.108
314.00	4.056
315.00	4.102
316.00	4.143
317.00	4.027
318.00	4.046
319.00	4.102
320.00	4.143
321.00	4.131
322.00	4.119
323.00	4.108
324.00	4.066
325.00	4.229
326.00	3.991
327.00	4.071
328.00	4.092
329.00	4.009
330.00	4.056
331.00	4.086
332.00	4.041
333.00	3.983
334.00	4.036
335.00	4.187
336.00	4.149
337.00	4.149
338.00	4.009
339.00	4.066
340.00	4.046
341.00	3.996
342.00	4.056
343.00	4.056
344.00	4.009
345.00	3.987
346.00	4.081
347.00	4.086
348.00	4.027
349.00	4.032
350.00	3.991
351.00	4.131
352.00	4.143
353.00	4.114
354.00	3.893
355.00	4.004
356.00	3.983
357.00	4.086
358.00	4.149
359.00	4.097
360.00	4.081
361.00	4.092
362.00	4.027
363.00	4.081
364.00	3.987
365.00	3.955
366.00	4.036
367.00	4.071
368.00	3.971
369.00	3.907
370.00	3.757
371.00	3.818
372.00	3.577
373.00	3.507
374.00	3.455
375.00	3.400
376.00	3.317
377.00	3.253
378.00	3.210
379.00	3.126
380.00	3.055
381.00	2.986
382.00	2.914
383.00	2.848
384.00	2.770
385.00	2.694
386.00	2.632
387.00	2.556
388.00	2.485
389.00	2.413
390.00	2.346
391.00	2.278
392.00	2.220
393.00	2.160
394.00	2.102
395.00	2.047
396.00	1.996
397.00	1.946
398.00	1.901
399.00	1.856
400.00	1.814
401.00	1.776
402.00	1.740
403.00	1.710
404.00	1.681
405.00	1.654
406.00	1.631
407.00	1.609
408.00	1.590
409.00	1.572
410.00	1.557
411.00	1.546
412.00	1.537
413.00	1.529
414.00	1.524
415.00	1.520
416.00	1.514
417.00	1.513
418.00	1.516
419.00	1.516
420.00	1.518
421.00	1.522
422.00	1.527
423.00	1.534
424.00	1.542
425.00	1.547
426.00	1.555
427.00	1.562
428.00	1.573
429.00	1.584
430.00	1.594
431.00	1.605
432.00	1.615
433.00	1.627
434.00	1.638
435.00	1.649
436.00	1.661
437.00	1.672
438.00	1.686
439.00	1.694
440.00	1.707
441.00	1.720
442.00	1.732
443.00	1.742
444.00	1.753
445.00	1.770
446.00	1.779
447.00	1.794
448.00	1.806
449.00	1.822
450.00	1.837
451.00	1.851
452.00	1.865
453.00	1.881
454.00	1.895
455.00	1.913
456.00	1.928
457.00	1.947
458.00	1.966
459.00	1.983
460.00	2.009
461.00	2.024
462.00	2.048
463.00	2.072
464.00	2.096
465.00	2.120
466.00	2.148
467.00	2.173
468.00	2.203
469.00	2.234
470.00	2.266
471.00	2.300
472.00	2.333
473.00	2.374
474.00	2.397
475.00	2.443
476.00	2.480
477.00	2.522
478.00	2.561
479.00	2.595
480.00	2.647
481.00	2.692
482.00	2.737
483.00	2.774
484.00	2.824
485.00	2.858
486.00	2.908
487.00	2.962
488.00	3.010
489.00	3.057
490.00	3.105
491.00	3.148
492.00	3.201
493.00	3.240
494.00	3.291
495.00	3.333
496.00	3.383
497.00	3.421
498.00	3.449
499.00	3.519
500.00	3.539
501.00	3.583
502.00	3.609
503.00	3.638
504.00	3.664
505.00	3.688
506.00	3.721
507.00	3.742
508.00	3.777
509.00	3.783
510.00	3.833
511.00	3.827
512.00	3.860
513.00	3.854
514.00	3.883
515.00	3.851
516.00	3.883
517.00	3.903
518.00	3.914
519.00	3.939
520.00	3.951
521.00	3.910
522.00	3.924
523.00	3.921
524.00	3.939
525.00	3.910
526.00	3.928
527.00	3.910
528.00	3.907
529.00	3.896
530.00	3.889
531.00	3.883
532.00	3.900
533.00	3.879
534.00	3.845
535.00	3.815
536.00	3.824
537.00	3.804
538.00	3.793
539.00	3.745
540.00	3.717
541.00	3.706
542.00	3.670
543.00	3.625
544.00	3.582
545.00	3.514
546.00	3.458
547.00	3.424
548.00	3.390
549.00	3.331
550.00	3.268
551.00	3.227
552.00	3.163
553.00	3.092
554.00	3.029
555.00	2.972
556.00	2.899
557.00	2.834
558.00	2.763
559.00	2.698
560.00	2.631
561.00	2.562
562.00	2.496
563.00	2.431
564.00	2.363
565.00	2.299
566.00	2.233
567.00	2.166
568.00	2.102
569.00	2.038
570.00	1.975
571.00	1.913
572.00	1.852
573.00	1.792
574.00	1.734
575.00	1.677
576.00	1.618
577.00	1.565
578.00	1.509
579.00	1.458
580.00	1.398
581.00	1.348
582.00	1.300
583.00	1.255
584.00	1.211
585.00	1.168
586.00	1.126
587.00	1.082
588.00	1.041
589.00	1.001
590.00	0.963
591.00	0.924
592.00	0.887
593.00	0.854
594.00	0.821
595.00	0.788
596.00	0.757
597.00	0.728
598.00	0.700
599.00	0.673
600.00	0.646
601.00	0.623
602.00	0.598
603.00	0.575
604.00	0.553
605.00	0.532
606.00	0.511
607.00	0.491
608.00	0.473
609.00	0.455
610.00	0.437
611.00	0.421
612.00	0.403
613.00	0.390
614.00	0.376
615.00	0.363
616.00	0.350
617.00	0.336
618.00	0.324
619.00	0.312
620.00	0.301
621.00	0.289
622.00	0.280
623.00	0.268
624.00	0.260
625.00	0.250
626.00	0.242
627.00	0.233
628.00	0.224
629.00	0.215
630.00	0.208
631.00	0.200
632.00	0.194
633.00	0.186
634.00	0.180
635.00	0.173
636.00	0.166
637.00	0.160
638.00	0.154
639.00	0.148
640.00	0.142
641.00	0.137
642.00	0.131
643.00	0.126
644.00	0.120
645.00	0.117
646.00	0.112
647.00	0.106
648.00	0.102
649.00	0.099
650.00	0.095
651.00	0.090
652.00	0.086
653.00	0.083
654.00	0.079
655.00	0.075
656.00	0.072
657.00	0.069
658.00	0.066
659.00	0.062
660.00	0.060
661.00	0.058
662.00	0.055
663.00	0.052
664.00	0.050
665.00	0.048
666.00	0.045
667.00	0.044
668.00	0.041
669.00	0.039
670.00	0.037
671.00	0.035
672.00	0.034
673.00	0.032
674.00	0.030
675.00	0.029
676.00	0.028
677.00	0.026
678.00	0.024
679.00	0.024
680.00	0.024
681.00	0.021
682.00	0.019
683.00	0.019
684.00	0.017
685.00	0.017
686.00	0.016
687.00	0.015
688.00	0.012
689.00	0.013
690.00	0.013
691.00	0.012
692.00	0.010
693.00	0.009
694.00	0.009
695.00	0.008
696.00	0.008
697.00	0.006
698.00	0.007
699.00	0.006
700.00	0.004
701.00	0.005
702.00	0.005
703.00	0.004
704.00	0.003
705.00	0.001
706.00	0.003
707.00	0.000
708.00	0.002
709.00	0.000
710.00	0.000
711.00	0.000
712.00	0.001
713.00	-0.001
714.00	-0.002
715.00	-0.001
716.00	-0.003
717.00	-0.003
718.00	-0.002
719.00	-0.004
720.00	-0.004
721.00	-0.004
722.00	-0.005
723.00	-0.004
724.00	-0.004
725.00	-0.006
726.00	-0.005
727.00	-0.005
728.00	-0.006
729.00	-0.006
730.00	-0.008
731.00	-0.008
732.00	-0.008
733.00	-0.008
734.00	-0.008
735.00	-0.008
736.00	-0.010
737.00	-0.009
738.00	-0.009
739.00	-0.009
740.00	-0.010
741.00	-0.010
742.00	-0.010
743.00	-0.011
744.00	-0.012
745.00	-0.011
746.00	-0.011
747.00	-0.011
748.00	-0.012
749.00	-0.011
750.00	-0.010
751.00	-0.012
752.00	-0.012
753.00	-0.012
754.00	-0.011
755.00	-0.013
756.00	-0.013
757.00	-0.014
758.00	-0.015
759.00	-0.014
760.00	-0.013
761.00	-0.013
762.00	-0.014
763.00	-0.015
764.00	-0.014
765.00	-0.013
766.00	-0.014
767.00	-0.013
768.00	-0.014
769.00	-0.014
770.00	-0.017
771.00	-0.015
772.00	-0.015
773.00	-0.016
774.00	-0.016
775.00	-0.015
776.00	-0.016
777.00	-0.016
778.00	-0.017
779.00	-0.016
780.00	-0.015
781.00	-0.017
782.00	-0.016
783.00	-0.016
784.00	-0.016
785.00	-0.017
786.00	-0.017
787.00	-0.017
788.00	-0.018
789.00	-0.017
790.00	-0.018
791.00	-0.017
792.00	-0.018
793.00	-0.019
794.00	-0.018
795.00	-0.019
796.00	-0.016
797.00	-0.017
798.00	-0.018
799.00	-0.017
800.00	-0.019
