Batch	SentiGlass_14Nov009.sre
Evolution 600 288002	100%T Baseline Correction
Sample001 Cycle01	14/11/2022 11:08:07AM
nm	A
200.00	XXX.XXX
201.00	XXX.XXX
202.00	XXX.XXX
203.00	XXX.XXX
204.00	XXX.XXX
205.00	XXX.XXX
206.00	XXX.XXX
207.00	XXX.XXX
208.00	XXX.XXX
209.00	XXX.XXX
210.00	XXX.XXX
211.00	XXX.XXX
212.00	XXX.XXX
213.00	XXX.XXX
214.00	XXX.XXX
215.00	XXX.XXX
216.00	XXX.XXX
217.00	XXX.XXX
218.00	XXX.XXX
219.00	XXX.XXX
220.00	XXX.XXX
221.00	XXX.XXX
222.00	XXX.XXX
223.00	XXX.XXX
224.00	XXX.XXX
225.00	XXX.XXX
226.00	XXX.XXX
227.00	XXX.XXX
228.00	XXX.XXX
229.00	XXX.XXX
230.00	XXX.XXX
231.00	XXX.XXX
232.00	XXX.XXX
233.00	XXX.XXX
234.00	XXX.XXX
235.00	XXX.XXX
236.00	XXX.XXX
237.00	XXX.XXX
238.00	XXX.XXX
239.00	XXX.XXX
240.00	XXX.XXX
241.00	XXX.XXX
242.00	XXX.XXX
243.00	XXX.XXX
244.00	XXX.XXX
245.00	XXX.XXX
246.00	XXX.XXX
247.00	XXX.XXX
248.00	XXX.XXX
249.00	XXX.XXX
250.00	XXX.XXX
251.00	XXX.XXX
252.00	XXX.XXX
253.00	XXX.XXX
254.00	XXX.XXX
255.00	XXX.XXX
256.00	XXX.XXX
257.00	XXX.XXX
258.00	XXX.XXX
259.00	XXX.XXX
260.00	XXX.XXX
261.00	XXX.XXX
262.00	XXX.XXX
263.00	XXX.XXX
264.00	XXX.XXX
265.00	XXX.XXX
266.00	XXX.XXX
267.00	XXX.XXX
268.00	XXX.XXX
269.00	XXX.XXX
270.00	XXX.XXX
271.00	XXX.XXX
272.00	XXX.XXX
273.00	XXX.XXX
274.00	XXX.XXX
275.00	XXX.XXX
276.00	XXX.XXX
277.00	XXX.XXX
278.00	XXX.XXX
279.00	XXX.XXX
280.00	XXX.XXX
281.00	XXX.XXX
282.00	XXX.XXX
283.00	XXX.XXX
284.00	XXX.XXX
285.00	XXX.XXX
286.00	XXX.XXX
287.00	XXX.XXX
288.00	XXX.XXX
289.00	XXX.XXX
290.00	XXX.XXX
291.00	XXX.XXX
292.00	XXX.XXX
293.00	XXX.XXX
294.00	XXX.XXX
295.00	XXX.XXX
296.00	XXX.XXX
297.00	XXX.XXX
298.00	XXX.XXX
299.00	XXX.XXX
300.00	XXX.XXX
301.00	XXX.XXX
302.00	XXX.XXX
303.00	3.989
304.00	3.514
305.00	3.191
306.00	3.012
307.00	2.837
308.00	2.680
309.00	2.546
310.00	2.410
311.00	2.298
312.00	2.190
313.00	2.086
314.00	1.995
315.00	1.912
316.00	1.828
317.00	1.755
318.00	1.688
319.00	1.623
320.00	1.564
321.00	1.511
322.00	1.461
323.00	1.411
324.00	1.371
325.00	1.376
326.00	1.336
327.00	1.302
328.00	1.270
329.00	1.243
330.00	1.214
331.00	1.187
332.00	1.158
333.00	1.135
334.00	1.115
335.00	1.093
336.00	1.074
337.00	1.060
338.00	1.039
339.00	1.022
340.00	1.012
341.00	0.998
342.00	0.986
343.00	0.974
344.00	0.963
345.00	0.953
346.00	0.941
347.00	0.931
348.00	0.919
349.00	0.907
350.00	0.904
351.00	0.892
352.00	0.883
353.00	0.870
354.00	0.862
355.00	0.849
356.00	0.839
357.00	0.827
358.00	0.817
359.00	0.803
360.00	0.797
361.00	0.787
362.00	0.779
363.00	0.770
364.00	0.764
365.00	0.756
366.00	0.750
367.00	0.744
368.00	0.735
369.00	0.730
370.00	0.725
371.00	0.722
372.00	0.718
373.00	0.714
374.00	0.712
375.00	0.707
376.00	0.705
377.00	0.701
378.00	0.697
379.00	0.691
380.00	0.688
381.00	0.684
382.00	0.680
383.00	0.675
384.00	0.671
385.00	0.668
386.00	0.663
387.00	0.657
388.00	0.655
389.00	0.649
390.00	0.646
391.00	0.643
392.00	0.639
393.00	0.637
394.00	0.631
395.00	0.627
396.00	0.623
397.00	0.619
398.00	0.618
399.00	0.612
400.00	0.610
401.00	0.604
402.00	0.601
403.00	0.597
404.00	0.595
405.00	0.592
406.00	0.587
407.00	0.584
408.00	0.581
409.00	0.579
410.00	0.574
411.00	0.573
412.00	0.564
413.00	0.559
414.00	0.555
415.00	0.553
416.00	0.550
417.00	0.551
418.00	0.548
419.00	0.544
420.00	0.545
421.00	0.542
422.00	0.540
423.00	0.538
424.00	0.536
425.00	0.535
426.00	0.532
427.00	0.532
428.00	0.528
429.00	0.530
430.00	0.526
431.00	0.528
432.00	0.523
433.00	0.524
434.00	0.522
435.00	0.518
436.00	0.522
437.00	0.520
438.00	0.518
439.00	0.514
440.00	0.515
441.00	0.514
442.00	0.510
443.00	0.510
444.00	0.509
445.00	0.506
446.00	0.507
447.00	0.505
448.00	0.504
449.00	0.504
450.00	0.502
451.00	0.501
452.00	0.498
453.00	0.496
454.00	0.495
455.00	0.496
456.00	0.495
457.00	0.495
458.00	0.493
459.00	0.490
460.00	0.489
461.00	0.490
462.00	0.489
463.00	0.488
464.00	0.485
465.00	0.484
466.00	0.484
467.00	0.482
468.00	0.484
469.00	0.480
470.00	0.480
471.00	0.480
472.00	0.477
473.00	0.479
474.00	0.477
475.00	0.476
476.00	0.479
477.00	0.474
478.00	0.472
479.00	0.473
480.00	0.474
481.00	0.470
482.00	0.469
483.00	0.471
484.00	0.470
485.00	0.470
486.00	0.469
487.00	0.468
488.00	0.468
489.00	0.466
490.00	0.464
491.00	0.464
492.00	0.462
493.00	0.464
494.00	0.464
495.00	0.460
496.00	0.462
497.00	0.462
498.00	0.462
499.00	0.460
500.00	0.458
501.00	0.458
502.00	0.458
503.00	0.457
504.00	0.454
505.00	0.458
506.00	0.459
507.00	0.459
508.00	0.457
509.00	0.456
510.00	0.455
511.00	0.457
512.00	0.461
513.00	0.459
514.00	0.458
515.00	0.461
516.00	0.459
517.00	0.461
518.00	0.459
519.00	0.459
520.00	0.459
521.00	0.458
522.00	0.459
523.00	0.457
524.00	0.456
525.00	0.455
526.00	0.456
527.00	0.450
528.00	0.449
529.00	0.447
530.00	0.444
531.00	0.442
532.00	0.440
533.00	0.435
534.00	0.431
535.00	0.429
536.00	0.424
537.00	0.420
538.00	0.419
539.00	0.415
540.00	0.410
541.00	0.403
542.00	0.398
543.00	0.394
544.00	0.390
545.00	0.384
546.00	0.379
547.00	0.374
548.00	0.366
549.00	0.359
550.00	0.354
551.00	0.348
552.00	0.339
553.00	0.333
554.00	0.325
555.00	0.322
556.00	0.317
557.00	0.308
558.00	0.302
559.00	0.295
560.00	0.289
561.00	0.282
562.00	0.274
563.00	0.266
564.00	0.260
565.00	0.254
566.00	0.248
567.00	0.244
568.00	0.233
569.00	0.229
570.00	0.224
571.00	0.215
572.00	0.212
573.00	0.204
574.00	0.200
575.00	0.194
576.00	0.189
577.00	0.182
578.00	0.179
579.00	0.176
580.00	0.171
581.00	0.165
582.00	0.159
583.00	0.154
584.00	0.149
585.00	0.148
586.00	0.141
587.00	0.136
588.00	0.134
589.00	0.127
590.00	0.124
591.00	0.119
592.00	0.118
593.00	0.115
594.00	0.110
595.00	0.108
596.00	0.105
597.00	0.102
598.00	0.097
599.00	0.098
600.00	0.093
601.00	0.091
602.00	0.089
603.00	0.084
604.00	0.082
605.00	0.082
606.00	0.079
607.00	0.076
608.00	0.071
609.00	0.066
610.00	0.067
611.00	0.064
612.00	0.060
613.00	0.058
614.00	0.055
615.00	0.054
616.00	0.053
617.00	0.051
618.00	0.050
619.00	0.047
620.00	0.049
621.00	0.045
622.00	0.044
623.00	0.042
624.00	0.040
625.00	0.038
626.00	0.038
627.00	0.035
628.00	0.035
629.00	0.031
630.00	0.029
631.00	0.029
632.00	0.030
633.00	0.026
634.00	0.023
635.00	0.020
636.00	0.019
637.00	0.017
638.00	0.017
639.00	0.015
640.00	0.015
641.00	0.013
642.00	0.010
643.00	0.009
644.00	0.008
645.00	0.007
646.00	0.007
647.00	0.004
648.00	0.004
649.00	0.002
650.00	0.002
651.00	-0.001
652.00	0.000
653.00	0.001
654.00	-0.002
655.00	-0.003
656.00	-0.004
657.00	-0.008
658.00	-0.008
659.00	-0.007
660.00	-0.007
661.00	-0.012
662.00	-0.013
663.00	-0.011
664.00	-0.014
665.00	-0.016
666.00	-0.016
667.00	-0.018
668.00	-0.019
669.00	-0.019
670.00	-0.021
671.00	-0.023
672.00	-0.023
673.00	-0.023
674.00	-0.027
675.00	-0.028
676.00	-0.025
677.00	-0.030
678.00	-0.029
679.00	-0.031
680.00	-0.030
681.00	-0.030
682.00	-0.031
683.00	-0.030
684.00	-0.031
685.00	-0.032
686.00	-0.031
687.00	-0.033
688.00	-0.033
689.00	-0.035
690.00	-0.034
691.00	-0.036
692.00	-0.038
693.00	-0.038
694.00	-0.041
695.00	-0.043
696.00	-0.044
697.00	-0.045
698.00	-0.048
699.00	-0.049
700.00	-0.051
701.00	-0.053
702.00	-0.055
703.00	-0.056
704.00	-0.055
705.00	-0.057
706.00	-0.058
707.00	-0.059
708.00	-0.061
709.00	-0.063
710.00	-0.065
711.00	-0.064
712.00	-0.063
713.00	-0.064
714.00	-0.065
715.00	-0.065
716.00	-0.065
717.00	-0.067
718.00	-0.065
719.00	-0.066
720.00	-0.069
721.00	-0.065
722.00	-0.068
723.00	-0.070
724.00	-0.072
725.00	-0.069
726.00	-0.072
727.00	-0.072
728.00	-0.077
729.00	-0.075
730.00	-0.076
731.00	-0.078
732.00	-0.079
733.00	-0.080
734.00	-0.081
735.00	-0.082
736.00	-0.083
737.00	-0.085
738.00	-0.081
739.00	-0.082
740.00	-0.081
741.00	-0.085
742.00	-0.083
743.00	-0.083
744.00	-0.081
745.00	-0.082
746.00	-0.079
747.00	-0.079
748.00	-0.080
749.00	-0.079
750.00	-0.080
751.00	-0.078
752.00	-0.078
753.00	-0.078
754.00	-0.080
755.00	-0.078
756.00	-0.078
757.00	-0.080
758.00	-0.076
759.00	-0.078
760.00	-0.080
761.00	-0.079
762.00	-0.082
763.00	-0.084
764.00	-0.085
765.00	-0.086
766.00	-0.085
767.00	-0.086
768.00	-0.086
769.00	-0.089
770.00	-0.088
771.00	-0.090
772.00	-0.091
773.00	-0.089
774.00	-0.090
775.00	-0.091
776.00	-0.091
777.00	-0.091
778.00	-0.088
779.00	-0.089
780.00	-0.087
781.00	-0.088
782.00	-0.087
783.00	-0.086
784.00	-0.086
785.00	-0.083
786.00	-0.084
787.00	-0.085
788.00	-0.085
789.00	-0.083
790.00	-0.081
791.00	-0.081
792.00	-0.080
793.00	-0.081
794.00	-0.083
795.00	-0.076
796.00	-0.082
797.00	-0.082
798.00	-0.082
799.00	-0.083
800.00	-0.084
