Batch	SentiGlass_14Nov007.sre
Evolution 600 288002	100%T Baseline Correction
Sample001 Cycle01	14/11/2022 11:00:37AM
nm	A
200.00	XXX.XXX
201.00	XXX.XXX
202.00	XXX.XXX
203.00	XXX.XXX
204.00	XXX.XXX
205.00	XXX.XXX
206.00	XXX.XXX
207.00	XXX.XXX
208.00	XXX.XXX
209.00	XXX.XXX
210.00	XXX.XXX
211.00	XXX.XXX
212.00	XXX.XXX
213.00	XXX.XXX
214.00	XXX.XXX
215.00	XXX.XXX
216.00	XXX.XXX
217.00	XXX.XXX
218.00	XXX.XXX
219.00	XXX.XXX
220.00	XXX.XXX
221.00	XXX.XXX
222.00	XXX.XXX
223.00	XXX.XXX
224.00	XXX.XXX
225.00	XXX.XXX
226.00	XXX.XXX
227.00	XXX.XXX
228.00	XXX.XXX
229.00	XXX.XXX
230.00	XXX.XXX
231.00	XXX.XXX
232.00	XXX.XXX
233.00	XXX.XXX
234.00	XXX.XXX
235.00	XXX.XXX
236.00	XXX.XXX
237.00	XXX.XXX
238.00	XXX.XXX
239.00	XXX.XXX
240.00	XXX.XXX
241.00	XXX.XXX
242.00	XXX.XXX
243.00	XXX.XXX
244.00	XXX.XXX
245.00	XXX.XXX
246.00	XXX.XXX
247.00	XXX.XXX
248.00	XXX.XXX
249.00	XXX.XXX
250.00	XXX.XXX
251.00	XXX.XXX
252.00	XXX.XXX
253.00	XXX.XXX
254.00	XXX.XXX
255.00	XXX.XXX
256.00	XXX.XXX
257.00	XXX.XXX
258.00	XXX.XXX
259.00	XXX.XXX
260.00	XXX.XXX
261.00	XXX.XXX
262.00	XXX.XXX
263.00	XXX.XXX
264.00	XXX.XXX
265.00	XXX.XXX
266.00	XXX.XXX
267.00	XXX.XXX
268.00	XXX.XXX
269.00	XXX.XXX
270.00	XXX.XXX
271.00	XXX.XXX
272.00	XXX.XXX
273.00	XXX.XXX
274.00	XXX.XXX
275.00	XXX.XXX
276.00	XXX.XXX
277.00	XXX.XXX
278.00	XXX.XXX
279.00	XXX.XXX
280.00	XXX.XXX
281.00	XXX.XXX
282.00	XXX.XXX
283.00	XXX.XXX
284.00	XXX.XXX
285.00	XXX.XXX
286.00	XXX.XXX
287.00	XXX.XXX
288.00	XXX.XXX
289.00	XXX.XXX
290.00	XXX.XXX
291.00	XXX.XXX
292.00	XXX.XXX
293.00	XXX.XXX
294.00	XXX.XXX
295.00	XXX.XXX
296.00	XXX.XXX
297.00	XXX.XXX
298.00	XXX.XXX
299.00	XXX.XXX
300.00	XXX.XXX
301.00	XXX.XXX
302.00	4.522
303.00	3.702
304.00	3.452
305.00	3.197
306.00	2.958
307.00	2.807
308.00	2.631
309.00	2.484
310.00	2.370
311.00	2.249
312.00	2.139
313.00	2.041
314.00	1.954
315.00	1.863
316.00	1.790
317.00	1.710
318.00	1.640
319.00	1.582
320.00	1.525
321.00	1.478
322.00	1.427
323.00	1.381
324.00	1.345
325.00	1.379
326.00	1.338
327.00	1.305
328.00	1.276
329.00	1.251
330.00	1.223
331.00	1.201
332.00	1.174
333.00	1.156
334.00	1.134
335.00	1.118
336.00	1.106
337.00	1.089
338.00	1.077
339.00	1.066
340.00	1.054
341.00	1.045
342.00	1.035
343.00	1.029
344.00	1.020
345.00	1.013
346.00	1.004
347.00	1.002
348.00	0.994
349.00	0.986
350.00	1.001
351.00	0.992
352.00	0.985
353.00	0.981
354.00	0.978
355.00	0.972
356.00	0.965
357.00	0.963
358.00	0.958
359.00	0.951
360.00	0.947
361.00	0.945
362.00	0.941
363.00	0.936
364.00	0.932
365.00	0.926
366.00	0.924
367.00	0.921
368.00	0.917
369.00	0.913
370.00	0.908
371.00	0.905
372.00	0.900
373.00	0.900
374.00	0.897
375.00	0.893
376.00	0.892
377.00	0.887
378.00	0.886
379.00	0.878
380.00	0.875
381.00	0.872
382.00	0.869
383.00	0.864
384.00	0.860
385.00	0.857
386.00	0.850
387.00	0.847
388.00	0.844
389.00	0.840
390.00	0.840
391.00	0.835
392.00	0.831
393.00	0.829
394.00	0.825
395.00	0.822
396.00	0.818
397.00	0.816
398.00	0.815
399.00	0.813
400.00	0.810
401.00	0.809
402.00	0.805
403.00	0.804
404.00	0.802
405.00	0.800
406.00	0.797
407.00	0.797
408.00	0.793
409.00	0.792
410.00	0.789
411.00	0.791
412.00	0.784
413.00	0.785
414.00	0.781
415.00	0.781
416.00	0.779
417.00	0.781
418.00	0.779
419.00	0.776
420.00	0.779
421.00	0.774
422.00	0.776
423.00	0.775
424.00	0.774
425.00	0.772
426.00	0.771
427.00	0.771
428.00	0.771
429.00	0.770
430.00	0.771
431.00	0.769
432.00	0.769
433.00	0.770
434.00	0.768
435.00	0.767
436.00	0.770
437.00	0.767
438.00	0.768
439.00	0.766
440.00	0.772
441.00	0.766
442.00	0.765
443.00	0.768
444.00	0.767
445.00	0.766
446.00	0.766
447.00	0.767
448.00	0.767
449.00	0.769
450.00	0.767
451.00	0.768
452.00	0.767
453.00	0.767
454.00	0.767
455.00	0.768
456.00	0.769
457.00	0.769
458.00	0.770
459.00	0.770
460.00	0.770
461.00	0.772
462.00	0.773
463.00	0.774
464.00	0.772
465.00	0.775
466.00	0.775
467.00	0.778
468.00	0.779
469.00	0.779
470.00	0.781
471.00	0.785
472.00	0.784
473.00	0.788
474.00	0.788
475.00	0.790
476.00	0.793
477.00	0.793
478.00	0.797
479.00	0.800
480.00	0.802
481.00	0.803
482.00	0.807
483.00	0.810
484.00	0.814
485.00	0.815
486.00	0.818
487.00	0.820
488.00	0.824
489.00	0.824
490.00	0.828
491.00	0.831
492.00	0.830
493.00	0.837
494.00	0.838
495.00	0.839
496.00	0.843
497.00	0.845
498.00	0.848
499.00	0.850
500.00	0.851
501.00	0.853
502.00	0.854
503.00	0.856
504.00	0.855
505.00	0.860
506.00	0.860
507.00	0.861
508.00	0.862
509.00	0.864
510.00	0.864
511.00	0.861
512.00	0.865
513.00	0.866
514.00	0.866
515.00	0.866
516.00	0.869
517.00	0.871
518.00	0.870
519.00	0.871
520.00	0.873
521.00	0.872
522.00	0.873
523.00	0.873
524.00	0.874
525.00	0.876
526.00	0.876
527.00	0.875
528.00	0.876
529.00	0.876
530.00	0.877
531.00	0.876
532.00	0.877
533.00	0.877
534.00	0.876
535.00	0.875
536.00	0.877
537.00	0.877
538.00	0.878
539.00	0.877
540.00	0.877
541.00	0.874
542.00	0.875
543.00	0.873
544.00	0.875
545.00	0.875
546.00	0.875
547.00	0.874
548.00	0.874
549.00	0.873
550.00	0.873
551.00	0.873
552.00	0.871
553.00	0.870
554.00	0.868
555.00	0.870
556.00	0.871
557.00	0.867
558.00	0.869
559.00	0.866
560.00	0.865
561.00	0.863
562.00	0.864
563.00	0.862
564.00	0.862
565.00	0.859
566.00	0.858
567.00	0.860
568.00	0.857
569.00	0.856
570.00	0.856
571.00	0.851
572.00	0.851
573.00	0.850
574.00	0.846
575.00	0.846
576.00	0.841
577.00	0.840
578.00	0.839
579.00	0.837
580.00	0.834
581.00	0.830
582.00	0.828
583.00	0.824
584.00	0.821
585.00	0.819
586.00	0.817
587.00	0.811
588.00	0.807
589.00	0.802
590.00	0.799
591.00	0.796
592.00	0.793
593.00	0.788
594.00	0.780
595.00	0.778
596.00	0.772
597.00	0.767
598.00	0.760
599.00	0.757
600.00	0.750
601.00	0.742
602.00	0.738
603.00	0.732
604.00	0.724
605.00	0.720
606.00	0.715
607.00	0.707
608.00	0.700
609.00	0.692
610.00	0.689
611.00	0.682
612.00	0.674
613.00	0.669
614.00	0.660
615.00	0.656
616.00	0.647
617.00	0.641
618.00	0.635
619.00	0.628
620.00	0.623
621.00	0.615
622.00	0.609
623.00	0.603
624.00	0.597
625.00	0.589
626.00	0.582
627.00	0.577
628.00	0.570
629.00	0.563
630.00	0.558
631.00	0.552
632.00	0.548
633.00	0.541
634.00	0.534
635.00	0.526
636.00	0.521
637.00	0.514
638.00	0.509
639.00	0.503
640.00	0.498
641.00	0.489
642.00	0.485
643.00	0.479
644.00	0.473
645.00	0.468
646.00	0.462
647.00	0.455
648.00	0.450
649.00	0.443
650.00	0.440
651.00	0.431
652.00	0.427
653.00	0.421
654.00	0.415
655.00	0.410
656.00	0.402
657.00	0.395
658.00	0.389
659.00	0.385
660.00	0.379
661.00	0.371
662.00	0.364
663.00	0.359
664.00	0.351
665.00	0.346
666.00	0.338
667.00	0.330
668.00	0.325
669.00	0.319
670.00	0.313
671.00	0.305
672.00	0.300
673.00	0.293
674.00	0.285
675.00	0.279
676.00	0.274
677.00	0.265
678.00	0.260
679.00	0.254
680.00	0.247
681.00	0.242
682.00	0.238
683.00	0.231
684.00	0.224
685.00	0.218
686.00	0.214
687.00	0.205
688.00	0.201
689.00	0.195
690.00	0.190
691.00	0.183
692.00	0.177
693.00	0.172
694.00	0.165
695.00	0.160
696.00	0.156
697.00	0.150
698.00	0.145
699.00	0.140
700.00	0.135
701.00	0.129
702.00	0.126
703.00	0.121
704.00	0.117
705.00	0.110
706.00	0.106
707.00	0.104
708.00	0.099
709.00	0.092
710.00	0.087
711.00	0.085
712.00	0.081
713.00	0.075
714.00	0.072
715.00	0.066
716.00	0.063
717.00	0.058
718.00	0.055
719.00	0.050
720.00	0.046
721.00	0.046
722.00	0.041
723.00	0.038
724.00	0.034
725.00	0.033
726.00	0.030
727.00	0.029
728.00	0.024
729.00	0.025
730.00	0.024
731.00	0.022
732.00	0.020
733.00	0.019
734.00	0.018
735.00	0.015
736.00	0.014
737.00	0.012
738.00	0.013
739.00	0.011
740.00	0.009
741.00	0.005
742.00	0.002
743.00	0.002
744.00	0.000
745.00	-0.004
746.00	-0.004
747.00	-0.007
748.00	-0.011
749.00	-0.013
750.00	-0.016
751.00	-0.016
752.00	-0.018
753.00	-0.019
754.00	-0.022
755.00	-0.021
756.00	-0.024
757.00	-0.024
758.00	-0.022
759.00	-0.024
760.00	-0.023
761.00	-0.023
762.00	-0.024
763.00	-0.025
764.00	-0.024
765.00	-0.024
766.00	-0.023
767.00	-0.023
768.00	-0.023
769.00	-0.023
770.00	-0.024
771.00	-0.024
772.00	-0.024
773.00	-0.025
774.00	-0.024
775.00	-0.029
776.00	-0.030
777.00	-0.030
778.00	-0.031
779.00	-0.033
780.00	-0.034
781.00	-0.037
782.00	-0.038
783.00	-0.039
784.00	-0.041
785.00	-0.039
786.00	-0.042
787.00	-0.043
788.00	-0.043
789.00	-0.044
790.00	-0.044
791.00	-0.044
792.00	-0.043
793.00	-0.046
794.00	-0.045
795.00	-0.042
796.00	-0.041
797.00	-0.041
798.00	-0.040
799.00	-0.042
800.00	-0.042
