Batch	scan004
UV4-200 024715	None
Sample001 Cycle01	11/11/2022 13:55:52PM
nm	A
400.00	0.835
401.00	0.839
402.00	0.837
403.00	0.833
404.00	0.826
405.00	0.823
406.00	0.820
407.00	0.816
408.00	0.812
409.00	0.808
410.00	0.805
411.00	0.801
412.00	0.798
413.00	0.794
414.00	0.790
415.00	0.786
416.00	0.783
417.00	0.779
418.00	0.775
419.00	0.771
420.00	0.767
421.00	0.764
422.00	0.758
423.00	0.755
424.00	0.752
425.00	0.748
426.00	0.744
427.00	0.739
428.00	0.734
429.00	0.731
430.00	0.727
431.00	0.722
432.00	0.719
433.00	0.715
434.00	0.712
435.00	0.707
436.00	0.703
437.00	0.699
438.00	0.694
439.00	0.690
440.00	0.685
441.00	0.682
442.00	0.677
443.00	0.673
444.00	0.669
445.00	0.664
446.00	0.660
447.00	0.657
448.00	0.651
449.00	0.647
450.00	0.642
451.00	0.639
452.00	0.635
453.00	0.630
454.00	0.627
455.00	0.622
456.00	0.617
457.00	0.615
458.00	0.611
459.00	0.606
460.00	0.602
461.00	0.598
462.00	0.594
463.00	0.591
464.00	0.586
465.00	0.583
466.00	0.579
467.00	0.576
468.00	0.572
469.00	0.569
470.00	0.565
471.00	0.562
472.00	0.559
473.00	0.555
474.00	0.552
475.00	0.548
476.00	0.546
477.00	0.541
478.00	0.539
479.00	0.535
480.00	0.533
481.00	0.530
482.00	0.527
483.00	0.524
484.00	0.521
485.00	0.518
486.00	0.515
487.00	0.512
488.00	0.510
489.00	0.507
490.00	0.505
491.00	0.502
492.00	0.499
493.00	0.497
494.00	0.494
495.00	0.492
496.00	0.489
497.00	0.488
498.00	0.484
499.00	0.482
500.00	0.480
501.00	0.477
502.00	0.476
503.00	0.473
504.00	0.471
505.00	0.468
506.00	0.466
507.00	0.464
508.00	0.462
509.00	0.460
510.00	0.457
511.00	0.455
512.00	0.454
513.00	0.452
514.00	0.450
515.00	0.447
516.00	0.445
517.00	0.443
518.00	0.442
519.00	0.440
520.00	0.437
521.00	0.436
522.00	0.434
523.00	0.433
524.00	0.430
525.00	0.428
526.00	0.426
527.00	0.425
528.00	0.423
529.00	0.421
530.00	0.420
531.00	0.418
532.00	0.416
533.00	0.415
534.00	0.412
535.00	0.410
536.00	0.409
537.00	0.408
538.00	0.406
539.00	0.404
540.00	0.402
541.00	0.401
542.00	0.400
543.00	0.399
544.00	0.396
545.00	0.395
546.00	0.394
547.00	0.392
548.00	0.390
549.00	0.389
550.00	0.388
551.00	0.386
552.00	0.385
553.00	0.384
554.00	0.382
555.00	0.380
556.00	0.379
557.00	0.378
558.00	0.376
559.00	0.375
560.00	0.373
561.00	0.373
562.00	0.371
563.00	0.370
564.00	0.369
565.00	0.367
566.00	0.366
567.00	0.365
568.00	0.364
569.00	0.362
570.00	0.361
571.00	0.359
572.00	0.359
573.00	0.357
574.00	0.356
575.00	0.354
576.00	0.354
577.00	0.353
578.00	0.352
579.00	0.350
580.00	0.344
581.00	0.343
582.00	0.342
583.00	0.341
584.00	0.340
585.00	0.339
586.00	0.338
587.00	0.337
588.00	0.336
589.00	0.335
590.00	0.334
591.00	0.334
592.00	0.332
593.00	0.331
594.00	0.330
595.00	0.329
596.00	0.329
597.00	0.327
598.00	0.326
599.00	0.326
600.00	0.325
601.00	0.324
602.00	0.323
603.00	0.322
604.00	0.321
605.00	0.320
606.00	0.320
607.00	0.319
608.00	0.318
609.00	0.318
610.00	0.317
611.00	0.316
612.00	0.315
613.00	0.314
614.00	0.313
615.00	0.313
616.00	0.312
617.00	0.311
618.00	0.311
619.00	0.310
620.00	0.310
621.00	0.309
622.00	0.308
623.00	0.307
624.00	0.306
625.00	0.306
626.00	0.306
627.00	0.304
628.00	0.304
629.00	0.304
630.00	0.303
631.00	0.302
632.00	0.301
633.00	0.301
634.00	0.301
635.00	0.299
636.00	0.299
637.00	0.298
638.00	0.298
639.00	0.298
640.00	0.297
641.00	0.297
642.00	0.296
643.00	0.296
644.00	0.295
645.00	0.295
646.00	0.294
647.00	0.294
648.00	0.293
649.00	0.293
650.00	0.293
651.00	0.291
652.00	0.292
653.00	0.291
654.00	0.290
655.00	0.290
656.00	0.290
657.00	0.289
658.00	0.289
659.00	0.288
660.00	0.288
661.00	0.287
662.00	0.288
663.00	0.287
664.00	0.287
665.00	0.286
666.00	0.286
667.00	0.286
668.00	0.285
669.00	0.285
670.00	0.284
671.00	0.284
672.00	0.284
673.00	0.283
674.00	0.283
675.00	0.283
676.00	0.283
677.00	0.283
678.00	0.282
679.00	0.282
680.00	0.281
681.00	0.281
682.00	0.281
683.00	0.280
684.00	0.281
685.00	0.280
686.00	0.280
687.00	0.280
688.00	0.280
689.00	0.280
690.00	0.279
691.00	0.278
692.00	0.279
693.00	0.279
694.00	0.278
695.00	0.278
696.00	0.278
697.00	0.277
698.00	0.277
699.00	0.277
700.00	0.277
701.00	0.276
702.00	0.276
703.00	0.276
704.00	0.276
705.00	0.276
706.00	0.276
707.00	0.276
708.00	0.276
709.00	0.275
710.00	0.275
711.00	0.275
712.00	0.275
713.00	0.274
714.00	0.275
715.00	0.274
716.00	0.274
717.00	0.275
718.00	0.274
719.00	0.274
720.00	0.274
721.00	0.274
722.00	0.273
723.00	0.274
724.00	0.273
725.00	0.273
726.00	0.273
727.00	0.273
728.00	0.273
729.00	0.272
730.00	0.273
731.00	0.272
732.00	0.273
733.00	0.273
734.00	0.272
735.00	0.273
736.00	0.272
737.00	0.273
738.00	0.272
739.00	0.273
740.00	0.272
741.00	0.273
742.00	0.272
743.00	0.272
744.00	0.272
745.00	0.272
746.00	0.272
747.00	0.272
748.00	0.271
749.00	0.271
750.00	0.271
751.00	0.271
752.00	0.272
753.00	0.272
754.00	0.271
755.00	0.271
756.00	0.271
757.00	0.271
758.00	0.272
759.00	0.270
760.00	0.271
761.00	0.272
762.00	0.271
763.00	0.270
764.00	0.271
765.00	0.270
766.00	0.270
767.00	0.270
768.00	0.271
769.00	0.270
770.00	0.271
771.00	0.270
772.00	0.271
773.00	0.271
774.00	0.269
775.00	0.270
776.00	0.270
777.00	0.270
778.00	0.270
779.00	0.270
780.00	0.270
781.00	0.269
782.00	0.270
783.00	0.270
784.00	0.271
785.00	0.270
786.00	0.270
787.00	0.271
788.00	0.270
789.00	0.271
790.00	0.270
791.00	0.270
792.00	0.269
793.00	0.270
794.00	0.269
795.00	0.269
796.00	0.268
797.00	0.269
798.00	0.270
799.00	0.271
800.00	0.269
