Batch	deathturmeric.sre
UV4-200 024715	None
Sample001 Cycle01	11/11/2022 14:02:52PM
nm	A
300.00	4.553
301.00	4.481
302.00	4.481
303.00	4.377
304.00	4.319
305.00	4.229
306.00	4.131
307.00	4.036
308.00	3.914
309.00	3.818
310.00	3.721
311.00	3.625
312.00	3.520
313.00	3.423
314.00	3.325
315.00	3.248
316.00	3.161
317.00	3.086
318.00	3.015
319.00	2.952
320.00	2.888
321.00	2.831
322.00	2.774
323.00	2.720
324.00	2.673
325.00	2.574
326.00	2.536
327.00	2.499
328.00	2.463
329.00	2.429
330.00	2.398
331.00	2.369
332.00	2.344
333.00	2.314
334.00	2.290
335.00	2.264
336.00	2.240
337.00	2.213
338.00	2.185
339.00	2.156
340.00	2.119
341.00	2.078
342.00	2.035
343.00	1.987
344.00	1.936
345.00	1.880
346.00	1.825
347.00	1.766
348.00	1.705
349.00	1.643
350.00	1.584
351.00	1.532
352.00	1.473
353.00	1.415
354.00	1.359
355.00	1.305
356.00	1.252
357.00	1.202
358.00	1.156
359.00	1.112
360.00	1.069
361.00	1.029
362.00	0.994
363.00	0.960
364.00	0.929
365.00	0.899
366.00	0.874
367.00	0.852
368.00	0.830
369.00	0.811
370.00	0.791
371.00	0.776
372.00	0.761
373.00	0.747
374.00	0.736
375.00	0.725
376.00	0.715
377.00	0.706
378.00	0.698
379.00	0.689
380.00	0.680
381.00	0.673
382.00	0.664
383.00	0.652
384.00	0.644
385.00	0.638
386.00	0.630
387.00	0.623
388.00	0.616
389.00	0.609
390.00	0.604
391.00	0.596
392.00	0.590
393.00	0.585
394.00	0.580
395.00	0.574
396.00	0.569
397.00	0.564
398.00	0.560
399.00	0.555
400.00	0.543
401.00	0.538
402.00	0.534
403.00	0.532
404.00	0.526
405.00	0.523
406.00	0.519
407.00	0.515
408.00	0.512
409.00	0.507
410.00	0.506
411.00	0.502
412.00	0.500
413.00	0.494
414.00	0.492
415.00	0.489
416.00	0.486
417.00	0.484
418.00	0.481
419.00	0.478
420.00	0.475
421.00	0.472
422.00	0.470
423.00	0.467
424.00	0.463
425.00	0.462
426.00	0.458
427.00	0.454
428.00	0.452
429.00	0.451
430.00	0.446
431.00	0.445
432.00	0.442
433.00	0.440
434.00	0.439
435.00	0.435
436.00	0.432
437.00	0.430
438.00	0.428
439.00	0.427
440.00	0.422
441.00	0.420
442.00	0.419
443.00	0.416
444.00	0.413
445.00	0.411
446.00	0.409
447.00	0.407
448.00	0.404
449.00	0.402
450.00	0.399
451.00	0.398
452.00	0.396
453.00	0.392
454.00	0.390
455.00	0.388
456.00	0.387
457.00	0.385
458.00	0.383
459.00	0.380
460.00	0.377
461.00	0.376
462.00	0.373
463.00	0.373
464.00	0.370
465.00	0.369
466.00	0.367
467.00	0.364
468.00	0.364
469.00	0.361
470.00	0.359
471.00	0.358
472.00	0.356
473.00	0.354
474.00	0.352
475.00	0.351
476.00	0.348
477.00	0.347
478.00	0.345
479.00	0.344
480.00	0.343
481.00	0.342
482.00	0.340
483.00	0.339
484.00	0.337
485.00	0.336
486.00	0.333
487.00	0.333
488.00	0.331
489.00	0.330
490.00	0.330
491.00	0.327
492.00	0.325
493.00	0.325
494.00	0.324
495.00	0.321
496.00	0.321
497.00	0.320
498.00	0.319
499.00	0.317
500.00	0.318
501.00	0.315
502.00	0.315
503.00	0.313
504.00	0.311
505.00	0.311
506.00	0.310
507.00	0.309
508.00	0.308
509.00	0.307
510.00	0.306
511.00	0.305
512.00	0.304
513.00	0.302
514.00	0.302
515.00	0.300
516.00	0.299
517.00	0.299
518.00	0.298
519.00	0.297
520.00	0.296
521.00	0.295
522.00	0.295
523.00	0.293
524.00	0.292
525.00	0.291
526.00	0.291
527.00	0.289
528.00	0.289
529.00	0.288
530.00	0.287
531.00	0.287
532.00	0.285
533.00	0.285
534.00	0.284
535.00	0.283
536.00	0.282
537.00	0.281
538.00	0.281
539.00	0.280
540.00	0.280
541.00	0.279
542.00	0.279
543.00	0.278
544.00	0.276
545.00	0.277
546.00	0.276
547.00	0.275
548.00	0.275
549.00	0.273
550.00	0.272
551.00	0.271
552.00	0.270
553.00	0.271
554.00	0.270
555.00	0.269
556.00	0.268
557.00	0.269
558.00	0.269
559.00	0.267
560.00	0.266
561.00	0.265
562.00	0.265
563.00	0.263
564.00	0.262
565.00	0.262
566.00	0.261
567.00	0.261
568.00	0.260
569.00	0.260
570.00	0.260
571.00	0.257
572.00	0.257
573.00	0.258
574.00	0.256
575.00	0.255
576.00	0.254
577.00	0.254
578.00	0.254
579.00	0.252
580.00	0.252
581.00	0.253
582.00	0.251
583.00	0.251
584.00	0.250
585.00	0.250
586.00	0.250
587.00	0.249
588.00	0.248
589.00	0.247
590.00	0.247
591.00	0.247
592.00	0.246
593.00	0.246
594.00	0.245
595.00	0.244
596.00	0.244
597.00	0.243
598.00	0.243
599.00	0.242
600.00	0.242
601.00	0.241
602.00	0.241
603.00	0.241
604.00	0.240
605.00	0.239
606.00	0.239
607.00	0.238
608.00	0.238
609.00	0.238
610.00	0.237
611.00	0.237
612.00	0.236
613.00	0.236
614.00	0.235
615.00	0.235
616.00	0.235
617.00	0.235
618.00	0.234
619.00	0.233
620.00	0.233
621.00	0.233
622.00	0.232
623.00	0.232
624.00	0.232
625.00	0.231
626.00	0.231
627.00	0.230
628.00	0.230
629.00	0.230
630.00	0.230
631.00	0.229
632.00	0.228
633.00	0.228
634.00	0.228
635.00	0.227
636.00	0.227
637.00	0.227
638.00	0.227
639.00	0.227
640.00	0.226
641.00	0.226
642.00	0.226
643.00	0.225
644.00	0.225
645.00	0.224
646.00	0.224
647.00	0.224
648.00	0.223
649.00	0.223
650.00	0.223
651.00	0.222
652.00	0.223
653.00	0.223
654.00	0.222
655.00	0.222
656.00	0.222
657.00	0.221
658.00	0.221
659.00	0.221
660.00	0.220
661.00	0.220
662.00	0.221
663.00	0.220
664.00	0.220
665.00	0.220
666.00	0.220
667.00	0.219
668.00	0.219
669.00	0.219
670.00	0.219
671.00	0.219
672.00	0.219
673.00	0.219
674.00	0.219
675.00	0.218
676.00	0.218
677.00	0.218
678.00	0.218
679.00	0.218
680.00	0.218
681.00	0.218
682.00	0.218
683.00	0.218
684.00	0.218
685.00	0.217
686.00	0.217
687.00	0.218
688.00	0.217
689.00	0.217
690.00	0.218
691.00	0.217
692.00	0.217
693.00	0.217
694.00	0.217
695.00	0.218
696.00	0.217
697.00	0.217
698.00	0.217
699.00	0.217
700.00	0.217
701.00	0.217
702.00	0.217
703.00	0.217
704.00	0.217
705.00	0.217
706.00	0.216
707.00	0.216
708.00	0.217
709.00	0.217
710.00	0.217
711.00	0.217
712.00	0.217
713.00	0.217
714.00	0.217
715.00	0.217
716.00	0.216
717.00	0.216
718.00	0.216
719.00	0.216
720.00	0.216
721.00	0.217
722.00	0.217
723.00	0.217
724.00	0.216
725.00	0.216
726.00	0.216
727.00	0.216
728.00	0.217
729.00	0.216
730.00	0.217
731.00	0.217
732.00	0.217
733.00	0.217
734.00	0.216
735.00	0.217
736.00	0.217
737.00	0.217
738.00	0.218
739.00	0.217
740.00	0.216
741.00	0.217
742.00	0.217
743.00	0.218
744.00	0.218
745.00	0.217
746.00	0.217
747.00	0.217
748.00	0.217
749.00	0.217
750.00	0.217
751.00	0.217
752.00	0.216
753.00	0.217
754.00	0.217
755.00	0.217
756.00	0.217
757.00	0.217
758.00	0.217
759.00	0.218
760.00	0.218
761.00	0.216
762.00	0.217
763.00	0.218
764.00	0.218
765.00	0.217
766.00	0.218
767.00	0.217
768.00	0.218
769.00	0.218
770.00	0.218
771.00	0.217
772.00	0.219
773.00	0.219
774.00	0.219
775.00	0.219
776.00	0.220
777.00	0.220
778.00	0.219
779.00	0.219
780.00	0.218
781.00	0.218
782.00	0.218
783.00	0.218
784.00	0.220
785.00	0.220
786.00	0.219
787.00	0.218
788.00	0.218
789.00	0.219
790.00	0.219
791.00	0.220
792.00	0.219
793.00	0.221
794.00	0.220
795.00	0.219
796.00	0.219
797.00	0.220
798.00	0.220
799.00	0.222
800.00	0.218
