Batch	scan005.sre
Evolution 600 288002	100%T Baseline Correction
wiped# Cycle01	08/11/2022 14:31:56PM
nm	A
200.00	XXX.XXX
201.00	4.267
202.00	XXX.XXX
203.00	XXX.XXX
204.00	XXX.XXX
205.00	XXX.XXX
206.00	XXX.XXX
207.00	XXX.XXX
208.00	XXX.XXX
209.00	4.568
210.00	XXX.XXX
211.00	XXX.XXX
212.00	XXX.XXX
213.00	XXX.XXX
214.00	XXX.XXX
215.00	6.045
216.00	XXX.XXX
217.00	XXX.XXX
218.00	XXX.XXX
219.00	XXX.XXX
220.00	XXX.XXX
221.00	XXX.XXX
222.00	XXX.XXX
223.00	XXX.XXX
224.00	XXX.XXX
225.00	XXX.XXX
226.00	XXX.XXX
227.00	XXX.XXX
228.00	XXX.XXX
229.00	XXX.XXX
230.00	XXX.XXX
231.00	XXX.XXX
232.00	XXX.XXX
233.00	XXX.XXX
234.00	XXX.XXX
235.00	XXX.XXX
236.00	XXX.XXX
237.00	XXX.XXX
238.00	XXX.XXX
239.00	XXX.XXX
240.00	XXX.XXX
241.00	XXX.XXX
242.00	XXX.XXX
243.00	XXX.XXX
244.00	XXX.XXX
245.00	XXX.XXX
246.00	XXX.XXX
247.00	XXX.XXX
248.00	XXX.XXX
249.00	XXX.XXX
250.00	XXX.XXX
251.00	XXX.XXX
252.00	XXX.XXX
253.00	XXX.XXX
254.00	XXX.XXX
255.00	XXX.XXX
256.00	XXX.XXX
257.00	XXX.XXX
258.00	XXX.XXX
259.00	XXX.XXX
260.00	XXX.XXX
261.00	XXX.XXX
262.00	XXX.XXX
263.00	XXX.XXX
264.00	XXX.XXX
265.00	XXX.XXX
266.00	5.461
267.00	5.084
268.00	XXX.XXX
269.00	4.565
270.00	XXX.XXX
271.00	XXX.XXX
272.00	4.742
273.00	5.255
274.00	XXX.XXX
275.00	4.021
276.00	XXX.XXX
277.00	4.456
278.00	XXX.XXX
279.00	4.304
280.00	4.972
281.00	XXX.XXX
282.00	4.097
283.00	5.096
284.00	4.150
285.00	4.121
286.00	4.184
287.00	3.788
288.00	4.270
289.00	3.859
290.00	XXX.XXX
291.00	3.949
292.00	3.850
293.00	3.872
294.00	3.667
295.00	3.933
296.00	3.729
297.00	3.874
298.00	3.841
299.00	3.604
300.00	3.768
301.00	3.975
302.00	3.340
303.00	3.872
304.00	3.503
305.00	3.638
306.00	3.882
307.00	3.614
308.00	3.527
309.00	4.080
310.00	3.554
311.00	3.521
312.00	3.305
313.00	3.380
314.00	3.345
315.00	3.349
316.00	3.212
317.00	3.373
318.00	3.081
319.00	3.154
320.00	3.021
321.00	3.180
322.00	3.026
323.00	3.018
324.00	2.987
325.00	2.726
326.00	2.799
327.00	2.773
328.00	2.777
329.00	2.750
330.00	2.730
331.00	2.750
332.00	2.712
333.00	2.641
334.00	2.655
335.00	2.569
336.00	2.496
337.00	2.411
338.00	2.330
339.00	2.239
340.00	2.146
341.00	2.050
342.00	1.953
343.00	1.857
344.00	1.772
345.00	1.679
346.00	1.596
347.00	1.510
348.00	1.428
349.00	1.357
350.00	1.281
351.00	1.213
352.00	1.148
353.00	1.079
354.00	1.027
355.00	0.977
356.00	0.922
357.00	0.877
358.00	0.831
359.00	0.793
360.00	0.761
361.00	0.728
362.00	0.696
363.00	0.671
364.00	0.644
365.00	0.626
366.00	0.609
367.00	0.590
368.00	0.572
369.00	0.553
370.00	0.540
371.00	0.531
372.00	0.526
373.00	0.511
374.00	0.502
375.00	0.497
376.00	0.489
377.00	0.478
378.00	0.476
379.00	0.470
380.00	0.465
381.00	0.455
382.00	0.448
383.00	0.445
384.00	0.432
385.00	0.431
386.00	0.426
387.00	0.422
388.00	0.418
389.00	0.411
390.00	0.408
391.00	0.401
392.00	0.395
393.00	0.392
394.00	0.392
395.00	0.387
396.00	0.385
397.00	0.381
398.00	0.378
399.00	0.377
400.00	0.372
401.00	0.368
402.00	0.366
403.00	0.361
404.00	0.362
405.00	0.356
406.00	0.357
407.00	0.356
408.00	0.355
409.00	0.350
410.00	0.346
411.00	0.341
412.00	0.337
413.00	0.335
414.00	0.333
415.00	0.334
416.00	0.332
417.00	0.331
418.00	0.326
419.00	0.326
420.00	0.325
421.00	0.320
422.00	0.317
423.00	0.316
424.00	0.314
425.00	0.313
426.00	0.313
427.00	0.312
428.00	0.312
429.00	0.312
430.00	0.309
431.00	0.305
432.00	0.298
433.00	0.298
434.00	0.297
435.00	0.298
436.00	0.296
437.00	0.298
438.00	0.296
439.00	0.294
440.00	0.294
441.00	0.294
442.00	0.291
443.00	0.283
444.00	0.283
445.00	0.281
446.00	0.279
447.00	0.279
448.00	0.279
449.00	0.278
450.00	0.279
451.00	0.274
452.00	0.277
453.00	0.273
454.00	0.272
455.00	0.268
456.00	0.267
457.00	0.264
458.00	0.261
459.00	0.258
460.00	0.259
461.00	0.257
462.00	0.258
463.00	0.261
464.00	0.261
465.00	0.259
466.00	0.259
467.00	0.254
468.00	0.252
469.00	0.251
470.00	0.248
471.00	0.246
472.00	0.245
473.00	0.242
474.00	0.245
475.00	0.243
476.00	0.245
477.00	0.244
478.00	0.245
479.00	0.244
480.00	0.241
481.00	0.244
482.00	0.241
483.00	0.238
484.00	0.236
485.00	0.235
486.00	0.232
487.00	0.229
488.00	0.228
489.00	0.227
490.00	0.227
491.00	0.229
492.00	0.228
493.00	0.230
494.00	0.231
495.00	0.233
496.00	0.232
497.00	0.228
498.00	0.230
499.00	0.228
500.00	0.225
501.00	0.223
502.00	0.220
503.00	0.219
504.00	0.217
505.00	0.215
506.00	0.216
507.00	0.217
508.00	0.218
509.00	0.217
510.00	0.218
511.00	0.220
512.00	0.221
513.00	0.221
514.00	0.222
515.00	0.218
516.00	0.217
517.00	0.218
518.00	0.217
519.00	0.213
520.00	0.210
521.00	0.210
522.00	0.207
523.00	0.206
524.00	0.208
525.00	0.207
526.00	0.208
527.00	0.211
528.00	0.210
529.00	0.211
530.00	0.211
531.00	0.210
532.00	0.213
533.00	0.210
534.00	0.211
535.00	0.207
536.00	0.207
537.00	0.203
538.00	0.203
539.00	0.199
540.00	0.197
541.00	0.199
542.00	0.198
543.00	0.198
544.00	0.199
545.00	0.200
546.00	0.198
547.00	0.203
548.00	0.202
549.00	0.201
550.00	0.203
551.00	0.203
552.00	0.206
553.00	0.203
554.00	0.200
555.00	0.199
556.00	0.198
557.00	0.198
558.00	0.194
559.00	0.193
560.00	0.191
561.00	0.191
562.00	0.190
563.00	0.188
564.00	0.188
565.00	0.191
566.00	0.188
567.00	0.190
568.00	0.192
569.00	0.194
570.00	0.194
571.00	0.194
572.00	0.194
573.00	0.192
574.00	0.196
575.00	0.195
576.00	0.193
577.00	0.192
578.00	0.190
579.00	0.191
580.00	0.189
581.00	0.185
582.00	0.184
583.00	0.183
584.00	0.181
585.00	0.179
586.00	0.182
587.00	0.181
588.00	0.181
589.00	0.180
590.00	0.182
591.00	0.184
592.00	0.181
593.00	0.184
594.00	0.184
595.00	0.185
596.00	0.185
597.00	0.184
598.00	0.184
599.00	0.185
600.00	0.183
