Batch	SentiGlass_14Nov010.sre
Evolution 600 288002	100%T Baseline Correction
Sample001 Cycle01	14/11/2022 11:11:15AM
nm	A
200.00	XXX.XXX
201.00	XXX.XXX
202.00	XXX.XXX
203.00	XXX.XXX
204.00	XXX.XXX
205.00	XXX.XXX
206.00	XXX.XXX
207.00	XXX.XXX
208.00	XXX.XXX
209.00	XXX.XXX
210.00	XXX.XXX
211.00	XXX.XXX
212.00	XXX.XXX
213.00	XXX.XXX
214.00	XXX.XXX
215.00	XXX.XXX
216.00	XXX.XXX
217.00	XXX.XXX
218.00	XXX.XXX
219.00	XXX.XXX
220.00	XXX.XXX
221.00	XXX.XXX
222.00	XXX.XXX
223.00	XXX.XXX
224.00	XXX.XXX
225.00	XXX.XXX
226.00	XXX.XXX
227.00	XXX.XXX
228.00	XXX.XXX
229.00	XXX.XXX
230.00	XXX.XXX
231.00	XXX.XXX
232.00	XXX.XXX
233.00	XXX.XXX
234.00	XXX.XXX
235.00	XXX.XXX
236.00	XXX.XXX
237.00	XXX.XXX
238.00	XXX.XXX
239.00	XXX.XXX
240.00	XXX.XXX
241.00	XXX.XXX
242.00	XXX.XXX
243.00	XXX.XXX
244.00	XXX.XXX
245.00	XXX.XXX
246.00	XXX.XXX
247.00	XXX.XXX
248.00	XXX.XXX
249.00	XXX.XXX
250.00	XXX.XXX
251.00	XXX.XXX
252.00	XXX.XXX
253.00	XXX.XXX
254.00	XXX.XXX
255.00	XXX.XXX
256.00	XXX.XXX
257.00	XXX.XXX
258.00	XXX.XXX
259.00	XXX.XXX
260.00	XXX.XXX
261.00	XXX.XXX
262.00	XXX.XXX
263.00	XXX.XXX
264.00	XXX.XXX
265.00	XXX.XXX
266.00	XXX.XXX
267.00	XXX.XXX
268.00	XXX.XXX
269.00	XXX.XXX
270.00	XXX.XXX
271.00	XXX.XXX
272.00	XXX.XXX
273.00	XXX.XXX
274.00	XXX.XXX
275.00	XXX.XXX
276.00	XXX.XXX
277.00	XXX.XXX
278.00	XXX.XXX
279.00	XXX.XXX
280.00	XXX.XXX
281.00	XXX.XXX
282.00	XXX.XXX
283.00	XXX.XXX
284.00	XXX.XXX
285.00	XXX.XXX
286.00	XXX.XXX
287.00	XXX.XXX
288.00	XXX.XXX
289.00	XXX.XXX
290.00	XXX.XXX
291.00	XXX.XXX
292.00	XXX.XXX
293.00	XXX.XXX
294.00	XXX.XXX
295.00	XXX.XXX
296.00	XXX.XXX
297.00	XXX.XXX
298.00	XXX.XXX
299.00	XXX.XXX
300.00	XXX.XXX
301.00	XXX.XXX
302.00	XXX.XXX
303.00	XXX.XXX
304.00	XXX.XXX
305.00	XXX.XXX
306.00	XXX.XXX
307.00	XXX.XXX
308.00	XXX.XXX
309.00	XXX.XXX
310.00	XXX.XXX
311.00	XXX.XXX
312.00	XXX.XXX
313.00	XXX.XXX
314.00	XXX.XXX
315.00	XXX.XXX
316.00	XXX.XXX
317.00	XXX.XXX
318.00	XXX.XXX
319.00	XXX.XXX
320.00	XXX.XXX
321.00	XXX.XXX
322.00	XXX.XXX
323.00	XXX.XXX
324.00	XXX.XXX
325.00	3.578
326.00	3.507
327.00	3.521
328.00	3.560
329.00	3.523
330.00	3.534
331.00	3.514
332.00	3.530
333.00	3.541
334.00	3.550
335.00	3.506
336.00	3.437
337.00	3.381
338.00	3.275
339.00	3.213
340.00	3.083
341.00	2.991
342.00	2.870
343.00	2.755
344.00	2.640
345.00	2.535
346.00	2.420
347.00	2.330
348.00	2.235
349.00	2.157
350.00	2.070
351.00	1.995
352.00	1.913
353.00	1.842
354.00	1.779
355.00	1.713
356.00	1.654
357.00	1.598
358.00	1.550
359.00	1.503
360.00	1.464
361.00	1.425
362.00	1.392
363.00	1.361
364.00	1.336
365.00	1.310
366.00	1.291
367.00	1.269
368.00	1.250
369.00	1.231
370.00	1.216
371.00	1.203
372.00	1.189
373.00	1.178
374.00	1.166
375.00	1.156
376.00	1.151
377.00	1.140
378.00	1.132
379.00	1.120
380.00	1.109
381.00	1.102
382.00	1.095
383.00	1.085
384.00	1.077
385.00	1.069
386.00	1.061
387.00	1.051
388.00	1.044
389.00	1.036
390.00	1.030
391.00	1.022
392.00	1.014
393.00	1.008
394.00	0.998
395.00	0.991
396.00	0.983
397.00	0.975
398.00	0.970
399.00	0.962
400.00	0.958
401.00	0.951
402.00	0.943
403.00	0.937
404.00	0.930
405.00	0.923
406.00	0.916
407.00	0.911
408.00	0.904
409.00	0.898
410.00	0.891
411.00	0.887
412.00	0.867
413.00	0.864
414.00	0.854
415.00	0.851
416.00	0.844
417.00	0.841
418.00	0.838
419.00	0.831
420.00	0.831
421.00	0.824
422.00	0.823
423.00	0.818
424.00	0.815
425.00	0.812
426.00	0.807
427.00	0.806
428.00	0.803
429.00	0.801
430.00	0.799
431.00	0.797
432.00	0.794
433.00	0.792
434.00	0.788
435.00	0.783
436.00	0.783
437.00	0.778
438.00	0.776
439.00	0.773
440.00	0.772
441.00	0.770
442.00	0.764
443.00	0.766
444.00	0.762
445.00	0.758
446.00	0.757
447.00	0.755
448.00	0.752
449.00	0.753
450.00	0.748
451.00	0.750
452.00	0.747
453.00	0.745
454.00	0.742
455.00	0.742
456.00	0.741
457.00	0.741
458.00	0.740
459.00	0.736
460.00	0.735
461.00	0.735
462.00	0.734
463.00	0.733
464.00	0.731
465.00	0.730
466.00	0.729
467.00	0.729
468.00	0.730
469.00	0.727
470.00	0.725
471.00	0.725
472.00	0.722
473.00	0.724
474.00	0.721
475.00	0.720
476.00	0.722
477.00	0.720
478.00	0.718
479.00	0.720
480.00	0.719
481.00	0.716
482.00	0.717
483.00	0.716
484.00	0.716
485.00	0.714
486.00	0.714
487.00	0.712
488.00	0.711
489.00	0.710
490.00	0.709
491.00	0.709
492.00	0.706
493.00	0.707
494.00	0.706
495.00	0.705
496.00	0.706
497.00	0.704
498.00	0.704
499.00	0.703
500.00	0.700
501.00	0.699
502.00	0.698
503.00	0.697
504.00	0.695
505.00	0.695
506.00	0.695
507.00	0.694
508.00	0.695
509.00	0.694
510.00	0.693
511.00	0.696
512.00	0.698
513.00	0.696
514.00	0.695
515.00	0.693
516.00	0.693
517.00	0.691
518.00	0.687
519.00	0.686
520.00	0.684
521.00	0.681
522.00	0.678
523.00	0.676
524.00	0.672
525.00	0.670
526.00	0.667
527.00	0.663
528.00	0.658
529.00	0.653
530.00	0.648
531.00	0.643
532.00	0.637
533.00	0.631
534.00	0.622
535.00	0.614
536.00	0.607
537.00	0.598
538.00	0.591
539.00	0.584
540.00	0.575
541.00	0.564
542.00	0.556
543.00	0.548
544.00	0.539
545.00	0.531
546.00	0.522
547.00	0.513
548.00	0.504
549.00	0.493
550.00	0.484
551.00	0.474
552.00	0.461
553.00	0.452
554.00	0.440
555.00	0.432
556.00	0.421
557.00	0.409
558.00	0.400
559.00	0.387
560.00	0.379
561.00	0.370
562.00	0.360
563.00	0.351
564.00	0.344
565.00	0.333
566.00	0.325
567.00	0.320
568.00	0.311
569.00	0.301
570.00	0.295
571.00	0.284
572.00	0.278
573.00	0.268
574.00	0.259
575.00	0.254
576.00	0.241
577.00	0.236
578.00	0.229
579.00	0.224
580.00	0.215
581.00	0.208
582.00	0.201
583.00	0.195
584.00	0.190
585.00	0.188
586.00	0.182
587.00	0.177
588.00	0.173
589.00	0.167
590.00	0.163
591.00	0.160
592.00	0.156
593.00	0.151
594.00	0.144
595.00	0.140
596.00	0.134
597.00	0.131
598.00	0.125
599.00	0.123
600.00	0.117
601.00	0.112
602.00	0.108
603.00	0.103
604.00	0.101
605.00	0.099
606.00	0.096
607.00	0.093
608.00	0.091
609.00	0.087
610.00	0.087
611.00	0.085
612.00	0.082
613.00	0.080
614.00	0.075
615.00	0.075
616.00	0.072
617.00	0.068
618.00	0.067
619.00	0.062
620.00	0.062
621.00	0.055
622.00	0.054
623.00	0.051
624.00	0.049
625.00	0.045
626.00	0.044
627.00	0.041
628.00	0.038
629.00	0.038
630.00	0.034
631.00	0.034
632.00	0.034
633.00	0.033
634.00	0.029
635.00	0.027
636.00	0.027
637.00	0.023
638.00	0.023
639.00	0.022
640.00	0.021
641.00	0.017
642.00	0.017
643.00	0.014
644.00	0.013
645.00	0.012
646.00	0.010
647.00	0.007
648.00	0.005
649.00	0.003
650.00	0.003
651.00	-0.001
652.00	-0.002
653.00	-0.004
654.00	-0.006
655.00	-0.006
656.00	-0.009
657.00	-0.012
658.00	-0.012
659.00	-0.012
660.00	-0.013
661.00	-0.016
662.00	-0.017
663.00	-0.016
664.00	-0.019
665.00	-0.019
666.00	-0.020
667.00	-0.022
668.00	-0.023
669.00	-0.022
670.00	-0.024
671.00	-0.025
672.00	-0.027
673.00	-0.027
674.00	-0.030
675.00	-0.030
676.00	-0.031
677.00	-0.036
678.00	-0.036
679.00	-0.037
680.00	-0.038
681.00	-0.039
682.00	-0.039
683.00	-0.041
684.00	-0.044
685.00	-0.046
686.00	-0.044
687.00	-0.047
688.00	-0.048
689.00	-0.050
690.00	-0.049
691.00	-0.053
692.00	-0.053
693.00	-0.054
694.00	-0.055
695.00	-0.055
696.00	-0.055
697.00	-0.056
698.00	-0.056
699.00	-0.056
700.00	-0.058
701.00	-0.061
702.00	-0.060
703.00	-0.063
704.00	-0.061
705.00	-0.064
706.00	-0.066
707.00	-0.066
708.00	-0.067
709.00	-0.071
710.00	-0.073
711.00	-0.074
712.00	-0.074
713.00	-0.077
714.00	-0.079
715.00	-0.083
716.00	-0.083
717.00	-0.085
718.00	-0.086
719.00	-0.090
720.00	-0.091
721.00	-0.089
722.00	-0.092
723.00	-0.092
724.00	-0.094
725.00	-0.093
726.00	-0.094
727.00	-0.093
728.00	-0.095
729.00	-0.092
730.00	-0.092
731.00	-0.091
732.00	-0.092
733.00	-0.092
734.00	-0.090
735.00	-0.091
736.00	-0.091
737.00	-0.091
738.00	-0.089
739.00	-0.088
740.00	-0.088
741.00	-0.090
742.00	-0.090
743.00	-0.091
744.00	-0.091
745.00	-0.093
746.00	-0.093
747.00	-0.095
748.00	-0.098
749.00	-0.097
750.00	-0.100
751.00	-0.100
752.00	-0.103
753.00	-0.104
754.00	-0.104
755.00	-0.105
756.00	-0.107
757.00	-0.108
758.00	-0.107
759.00	-0.108
760.00	-0.108
761.00	-0.107
762.00	-0.110
763.00	-0.109
764.00	-0.108
765.00	-0.107
766.00	-0.106
767.00	-0.105
768.00	-0.103
769.00	-0.102
770.00	-0.101
771.00	-0.101
772.00	-0.099
773.00	-0.099
774.00	-0.096
775.00	-0.098
776.00	-0.098
777.00	-0.096
778.00	-0.095
779.00	-0.095
780.00	-0.096
781.00	-0.097
782.00	-0.098
783.00	-0.098
784.00	-0.100
785.00	-0.099
786.00	-0.101
787.00	-0.102
788.00	-0.104
789.00	-0.106
790.00	-0.107
791.00	-0.107
792.00	-0.108
793.00	-0.111
794.00	-0.113
795.00	-0.110
796.00	-0.113
797.00	-0.114
798.00	-0.112
799.00	-0.115
800.00	-0.117
